D:\DATA\HAMBERGER\NICK\20230701\20230701_5-26-23_NBenthi_15.D  1 Jul 23  10:48 pm
Start of data points
4.09168,2631413
4.09645,2496489
4.10122,2547084
4.10597,2535820
4.11073,2510263
4.1155,2569272
4.12025,2601067
4.12502,2797521
4.12978,2720169
4.13455,2643194
4.1393,2537193
4.14407,2680171
4.14883,2656305
4.15358,2444674
4.15835,2347754
4.16312,2275503
4.16788,2185712
4.17263,2148604
4.1774,2187773
4.18217,2184885
4.18692,2242590
4.19168,2359136
4.19645,2270555
4.20122,2138907
4.20597,2098422
4.21073,2038049
4.2155,2076313
4.22025,1971634
4.22502,1996226
4.22978,2004473
4.23455,2011502
4.2393,2063655
4.24407,2011648
4.24883,1935752
4.25358,1954467
4.25835,1934522
4.26312,1945126
4.26788,1979145
4.27263,1936941
4.2774,2090244
4.28217,2749417
4.28693,2868603
4.29168,2345988
4.29645,1979472
4.30122,1841576
4.30597,1772929
4.31073,1831532
4.3155,1793431
4.32027,1774335
4.32502,1836733
4.32978,1962817
4.33455,2016141
4.3393,1843949
4.34407,1726020
4.34883,1769913
4.3536,1803024
4.35835,1822766
4.36312,1922966
4.36788,2031537
4.37263,1931738
4.3774,1954390
4.38217,1887911
4.38693,1842900
4.39168,1852286
4.39645,1795075
4.40122,1784758
4.40597,1662353
4.41073,1757302
4.4155,1724253
4.42027,1703334
4.42502,1846979
4.42978,1987047
4.43455,1888467
4.43932,1828629
4.44407,1814790
4.44883,1946682
4.4536,1826907
4.45835,1691020
4.46312,1663889
4.46788,1703355
4.47265,1673332
4.4774,1651531
4.48217,1684272
4.48693,1644296
4.49168,1653820
4.49645,1702221
4.50122,1673266
4.50598,1654822
4.51073,1672845
4.5155,1713684
4.52027,1844385
4.52502,1817569
4.52978,1661729
4.53455,1610363
4.53932,1605528
4.54407,1768556
4.54883,1795862
4.5536,1690077
4.55835,1645547
4.56312,1598216
4.56788,1635676
4.57265,1866817
4.5774,2167783
4.58217,2228827
4.58693,2117202
4.59168,1923150
4.59645,1734300
4.60122,1661647
4.60598,1618503
4.61073,1591762
4.6155,1552156
4.62027,1574526
4.62503,1579574
4.62978,1544180
4.63455,1504350
4.63932,1501877
4.64407,1503843
4.64883,1499455
4.6536,1520166
4.65837,1491570
4.66312,1490512
4.66788,1522619
4.67265,1618583
4.6774,1582929
4.68217,1508250
4.68693,1441294
4.6917,1462587
4.69645,1452390
4.70122,1466633
4.70598,1473491
4.71073,1448834
4.7155,1434475
4.72027,1433629
4.72503,1493329
4.72978,1475429
4.73455,1463168
4.73932,1442855
4.74407,1508804
4.74883,1424164
4.7536,1446916
4.75837,1441981
4.76312,1435299
4.76788,1397331
4.77265,1463793
4.77742,1408949
4.78217,1375408
4.78693,1439729
4.7917,1343564
4.79645,1379969
4.80122,1357129
4.80598,1442014
4.81075,1489509
4.8155,1524807
4.82027,1544491
4.82503,1561393
4.82978,1552883
4.83455,1536444
4.83932,1521694
4.84408,1540311
4.84883,1560484
4.8536,1578009
4.85837,1568719
4.86312,1605943
4.86788,1587535
4.87265,1550808
4.87742,1582641
4.88217,1598282
4.88693,1537453
4.8917,1545855
4.89645,1549316
4.90122,1562245
4.90598,1557025
4.91075,1577695
4.9155,1505631
4.92027,1510893
4.92503,1530969
4.92978,1500303
4.93455,1487862
4.93932,1481565
4.94408,1546151
4.94883,1509445
4.9536,1473459
4.95837,1478333
4.96313,1512991
4.96788,1471591
4.97265,1470042
4.97742,1423178
4.98217,1478607
4.98693,1450192
4.9917,1486748
4.99647,1423169
5.00122,1415444
5.00598,1431303
5.01075,1408091
5.0155,1432969
5.02027,1427359
5.02503,1407640
5.0298,1376946
5.03455,1374984
5.03932,1364456
5.04408,1374806
5.04883,1393469
5.0536,1379629
5.05837,1380580
5.06313,1344571
5.06788,1418948
5.07265,1372165
5.07742,1411006
5.08217,1339870
5.08693,1355243
5.0917,1310533
5.09647,1372285
5.10122,1384590
5.10598,1322740
5.11075,1332577
5.1155,1369898
5.12027,1355843
5.12503,1339586
5.1298,1395939
5.13455,1468068
5.13932,1503557
5.14408,1407173
5.14885,1448022
5.1536,1474068
5.15837,1476704
5.16313,1482244
5.16788,1495820
5.17265,1456668
5.17742,1467281
5.18218,1486207
5.18693,1526691
5.1917,1467789
5.19647,1511601
5.20122,1512288
5.20598,1504544
5.21075,1521502
5.21552,1492086
5.22027,1465818
5.22503,1490456
5.2298,1522791
5.23455,1508370
5.23932,1539956
5.24408,1436205
5.24885,1446784
5.2536,1510934
5.25837,1558882
5.26313,1667598
5.26788,1765049
5.27265,1840621
5.27742,1804803
5.28218,1615200
5.28693,1597685
5.2917,1515344
5.29647,1502970
5.30123,1472788
5.30598,1446423
5.31075,1475757
5.31552,1436487
5.32027,1438423
5.32503,1485665
5.3298,1481597
5.33457,1432435
5.33932,1505743
5.34408,1430276
5.34885,1445921
5.3536,1443441
5.35837,1393753
5.36313,1425563
5.3679,1451178
5.37265,1419731
5.37742,1418369
5.38218,1394348
5.38693,1460552
5.3917,1384406
5.39647,1385656
5.40123,1380535
5.40598,1429260
5.41075,1370161
5.41552,1362307
5.42027,1383477
5.42503,1389701
5.4298,1448976
5.43457,1432643
5.43932,1445133
5.44408,1488391
5.44885,1427249
5.4536,1385993
5.45837,1397993
5.46313,1387717
5.4679,1342198
5.47265,1397350
5.47742,1404818
5.48218,1413233
5.48695,1392936
5.4917,1414506
5.49647,1385794
5.50123,1391499
5.50598,1391644
5.51075,1355966
5.51552,1368101
5.52028,1372642
5.52503,1381299
5.5298,1374691
5.53457,1333046
5.53932,1332811
5.54408,1335186
5.54885,1311950
5.55362,1346349
5.55837,1326313
5.56313,1321347
5.5679,1312000
5.57265,1327294
5.57742,1288252
5.58218,1306972
5.58695,1292362
5.5917,1321295
5.59647,1292754
5.60123,1299280
5.60598,1268920
5.61075,1295926
5.61552,1271882
5.62028,1244647
5.62503,1264398
5.6298,1319699
5.63457,1298216
5.63933,1290255
5.64408,1268278
5.64885,1298141
5.65362,1349558
5.65837,1289748
5.66313,1362529
5.6679,1279100
5.67267,1273718
5.67742,1229918
5.68218,1286047
5.68695,1304562
5.6917,1274630
5.69647,1300188
5.70123,1300246
5.706,1256532
5.71075,1290309
5.71552,1289703
5.72028,1303439
5.72503,1273742
5.7298,1417086
5.73457,1298991
5.73933,1297249
5.74408,1263405
5.74885,1278047
5.75362,1280904
5.75837,1313592
5.76313,1284238
5.7679,1299204
5.77267,1323359
5.77742,1318060
5.78218,1311642
5.78695,1279381
5.7917,1295397
5.79647,1281313
5.80123,1306275
5.806,1262070
5.81075,1323542
5.81552,1420846
5.82028,1777861
5.82505,2075152
5.8298,2155943
5.83457,2256082
5.83933,2200882
5.84408,2147675
5.84885,2176917
5.85362,2131618
5.85838,2164950
5.86313,2075764
5.8679,2001215
5.87267,2056247
5.87742,1941025
5.88218,1917572
5.88695,1910514
5.89172,1914773
5.89647,1877458
5.90123,1856922
5.906,1817551
5.91075,1859463
5.91552,1816958
5.92028,1745259
5.92505,1746735
5.9298,1687719
5.93457,1717198
5.93933,1694197
5.94408,1637253
5.94885,1669206
5.95362,1637982
5.95838,1626827
5.96313,1719813
5.9679,1794277
5.97267,1892939
5.97742,1799478
5.98218,1703962
5.98695,1613608
5.99172,1609121
5.99647,1569671
6.00123,1529401
6.006,1528403
6.01077,1532157
6.01552,1685887
6.02028,1530305
6.02505,1519079
6.0298,1516349
6.03457,1493132
6.03933,1441035
6.0441,1436259
6.04885,1416538
6.05362,1469091
6.05838,1444945
6.06313,1430253
6.0679,1425095
6.07267,1466158
6.07743,1439293
6.08218,1400541
6.08695,1425681
6.09172,1525842
6.09647,1451234
6.10123,1441579
6.106,1414775
6.11077,1399160
6.11552,1366001
6.12028,1387262
6.12505,1376645
6.1298,1351715
6.13457,1329972
6.13933,1315467
6.1441,1265734
6.14885,1267252
6.15362,1250810
6.15838,1343954
6.16315,1273458
6.1679,1317796
6.17267,1357733
6.17743,1445015
6.18218,1420656
6.18695,1369856
6.19172,1292187
6.19648,1365077
6.20123,1290881
6.206,1330481
6.21077,1290636
6.21552,1336257
6.22028,1303163
6.22505,1279293
6.22982,1326894
6.23457,1271734
6.23933,1266531
6.2441,1242825
6.24885,1261215
6.25362,1258130
6.25838,1284760
6.26315,1235240
6.2679,1217970
6.27267,1195145
6.27743,1232665
6.28218,1197217
6.28695,1215599
6.29172,1196800
6.29648,1203494
6.30123,1185407
6.306,1206772
6.31077,1243995
6.31552,1211086
6.32028,1229513
6.32505,1242650
6.32982,1276113
6.33457,1222188
6.33933,1233782
6.3441,1227190
6.34887,1260069
6.35362,1208693
6.35838,1191673
6.36315,1174162
6.3679,1156260
6.37267,1178630
6.37743,1201449
6.3822,1208726
6.38695,1145540
6.39172,1135864
6.39648,1130846
6.40123,1162119
6.406,1139543
6.41077,1175973
6.41553,1233953
6.42028,1241180
6.42505,1311337
6.42982,1281142
6.43457,1189228
6.43933,1175437
6.4441,1152692
6.44887,1197766
6.45362,1127898
6.45838,1117284
6.46315,1103100
6.4679,1112293
6.47267,1127774
6.47743,1137580
6.4822,1117536
6.48695,1074994
6.49172,1098833
6.49648,1033077
6.50125,1052363
6.506,1084038
6.51077,1107001
6.51553,1100502
6.52028,1073388
6.52505,1059869
6.52982,1073227
6.53458,1120576
6.53933,1158862
6.5441,1121245
6.54887,1088948
6.55362,1069096
6.55838,1112648
6.56315,1043505
6.56792,1033122
6.57267,1064509
6.57743,1081722
6.5822,1028982
6.58695,1047636
6.59172,1119761
6.59648,1125328
6.60125,1059017
6.606,1069930
6.61077,1041329
6.61553,1045442
6.62028,1059421
6.62505,1051487
6.62982,1005220
6.63458,1008234
6.63933,1045546
6.6441,1027934
6.64887,1029146
6.65362,1089196
6.65838,1049978
6.66315,1019769
6.66792,1074247
6.67267,1014189
6.67743,1037115
6.6822,1069422
6.68697,1085481
6.69172,1061046
6.69648,1058366
6.70125,1019857
6.706,1038171
6.71077,993534
6.71553,1071744
6.7203,1002543
6.72505,993347
6.72982,981864
6.73458,959941
6.73933,1001811
6.7441,992384
6.74887,981015
6.75363,1029402
6.75838,990612
6.76315,988372
6.76792,1012074
6.77267,969060
6.77743,1020066
6.7822,1018168
6.78697,992135
6.79172,996245
6.79648,1029423
6.80125,1033718
6.806,1031491
6.81077,1068470
6.81553,1062669
6.8203,1048684
6.82505,1046423
6.82982,1088194
6.83458,1057850
6.83933,1063852
6.8441,1103152
6.84887,1102548
6.85363,1081014
6.85838,1066152
6.86315,1040298
6.86792,1000019
6.87268,1015654
6.87743,974941
6.8822,978038
6.88697,1029721
6.89172,1012160
6.89648,982847
6.90125,1007133
6.90602,1004915
6.91077,960360
6.91553,1018685
6.9203,1028638
6.92505,1005624
6.92982,999942
6.93458,984177
6.93935,997503
6.9441,990984
6.94887,957708
6.95363,976699
6.95838,965595
6.96315,948759
6.96792,953935
6.97268,976925
6.97743,916135
6.9822,987124
6.98697,951286
6.99172,954503
6.99648,950118
7.00125,921980
7.00602,936397
7.01077,927892
7.01553,922222
7.0203,928620
7.02507,931981
7.02982,923549
7.03458,921638
7.03935,894329
7.0441,911083
7.04887,920942
7.05363,909909
7.0584,893011
7.06315,927507
7.06792,891953
7.07268,883408
7.07743,898096
7.0822,894470
7.08697,903974
7.09173,921675
7.09648,869773
7.10125,880277
7.10602,869272
7.11077,884908
7.11553,898418
7.1203,893093
7.12507,875636
7.12982,847194
7.13458,862881
7.13935,855067
7.1441,883409
7.14887,862808
7.15363,908116
7.1584,866395
7.16315,861450
7.16792,886730
7.17268,851150
7.17743,857019
7.1822,892875
7.18697,856321
7.19173,886148
7.19648,846119
7.20125,890555
7.20602,905833
7.21078,876024
7.21553,846567
7.2203,850113
7.22507,864069
7.22982,877964
7.23458,861302
7.23935,829634
7.24412,847647
7.24887,874804
7.25363,791541
7.2584,833529
7.26315,840768
7.26792,835493
7.27268,829648
7.27745,852690
7.2822,849193
7.28697,824511
7.29173,846849
7.29648,807389
7.30125,813379
7.30602,838828
7.31078,815568
7.31553,821916
7.3203,831091
7.32507,832082
7.32982,838406
7.33458,800380
7.33935,817541
7.34412,818675
7.34887,817048
7.35363,841097
7.3584,831683
7.36317,823682
7.36792,808358
7.37268,803294
7.37745,771226
7.3822,791560
7.38697,795205
7.39173,817037
7.3965,785789
7.40125,773443
7.40602,823387
7.41078,839075
7.41553,787507
7.4203,799473
7.42507,813349
7.42983,808651
7.43458,835191
7.43935,789363
7.44412,751179
7.44887,762771
7.45363,817403
7.4584,752484
7.46317,829475
7.46792,759017
7.47268,755038
7.47745,787481
7.4822,778249
7.48697,774002
7.49173,797515
7.4965,773107
7.50125,789307
7.50602,756494
7.51078,794564
7.51553,798021
7.5203,780632
7.52507,759441
7.52983,816446
7.53458,885750
7.53935,949802
7.54412,967273
7.54888,988593
7.55363,965919
7.5584,884616
7.56317,831610
7.56792,807621
7.57268,798824
7.57745,766337
7.58222,814483
7.58697,807181
7.59173,791658
7.5965,710713
7.60125,784820
7.60602,743846
7.61078,785689
7.61555,788012
7.6203,792780
7.62507,802103
7.62983,813515
7.63458,762035
7.63935,774296
7.64412,811224
7.64888,770924
7.65363,779174
7.6584,749673
7.66317,731703
7.66792,762500
7.67268,762286
7.67745,733273
7.68222,762124
7.68697,771492
7.69173,737146
7.6965,705591
7.70125,748874
7.70602,756486
7.71078,710375
7.71555,758377
7.7203,737765
7.72507,748227
7.72983,743627
7.7346,713877
7.73935,708663
7.74412,717183
7.74888,703578
7.75363,705055
7.7584,722778
7.76317,688969
7.76793,696243
7.77268,741096
7.77745,706533
7.78222,711552
7.78697,710364
7.79173,681739
7.7965,733160
7.80127,720162
7.80602,743202
7.81078,743243
7.81555,744403
7.8203,729190
7.82507,744283
7.82983,778347
7.8346,776780
7.83935,759452
7.84412,718824
7.84888,736756
7.85363,723476
7.8584,746420
7.86317,711724
7.86793,713950
7.87268,719325
7.87745,731769
7.88222,737109
7.88698,722639
7.89173,712604
7.8965,703897
7.90127,713873
7.90602,732898
7.91078,714615
7.91555,727368
7.92032,760694
7.92507,799986
7.92983,824995
7.9346,869302
7.93935,860048
7.94412,840023
7.94888,798965
7.95365,762727
7.9584,746534
7.96317,721381
7.96793,698191
7.97268,743680
7.97745,694660
7.98222,716465
7.98698,722599
7.99173,692218
7.9965,713049
8.00127,653620
8.00602,682931
8.01078,693165
8.01555,688980
8.02032,699977
8.02507,698162
8.02983,719442
8.0346,694908
8.03935,746926
8.04412,721477
8.04888,692185
8.05365,706149
8.0584,698771
8.06317,708524
8.06793,679638
8.0727,685729
8.07745,701149
8.08222,699522
8.08698,712261
8.09173,738241
8.0965,726094
8.10127,725799
8.10603,711836
8.11078,704249
8.11555,720374
8.12032,704662
8.12507,733736
8.12983,718385
8.1346,778927
8.13937,722058
8.14412,705850
8.14888,692120
8.15365,696512
8.1584,672242
8.16317,687668
8.16793,673502
8.1727,640987
8.17745,675617
8.18222,660331
8.18698,680523
8.19173,645198
8.1965,666950
8.20127,663753
8.20603,650107
8.21078,634966
8.21555,666941
8.22032,668316
8.22508,664886
8.22983,649268
8.2346,654112
8.23937,663904
8.24412,657924
8.24888,651215
8.25365,651565
8.25842,615903
8.26317,630228
8.26793,661664
8.2727,623932
8.27745,669043
8.28222,632098
8.28698,682517
8.29175,640181
8.2965,674656
8.30127,601042
8.30603,638011
8.31078,627731
8.31555,652564
8.32032,670676
8.32508,657472
8.32983,605221
8.3346,606085
8.33937,650891
8.34412,649046
8.34888,659766
8.35365,653864
8.35842,624147
8.36317,676208
8.36793,643073
8.3727,631833
8.37745,656949
8.38222,607504
8.38698,613061
8.39175,640021
8.3965,632392
8.40127,614430
8.40603,655190
8.4108,601261
8.41555,610385
8.42032,621244
8.42508,606569
8.42983,641779
8.4346,621095
8.43937,629206
8.44413,624051
8.44888,632581
8.45365,594992
8.45842,613650
8.46317,625567
8.46793,625782
8.4727,619347
8.47747,616354
8.48222,611734
8.48698,624115
8.49175,624114
8.4965,601372
8.50127,644254
8.50603,621934
8.5108,588048
8.51555,634700
8.52032,616959
8.52508,613722
8.52983,604806
8.5346,593465
8.53937,580906
8.54413,616718
8.54888,563798
8.55365,586598
8.55842,599263
8.56317,589380
8.56793,626240
8.5727,614959
8.57747,609685
8.58222,630445
8.58698,621008
8.59175,617550
8.59652,587506
8.60127,628995
8.60603,588530
8.6108,594907
8.61555,631972
8.62032,612428
8.62508,620488
8.62985,599297
8.6346,632405
8.63937,604852
8.64413,636449
8.64888,615794
8.65365,597111
8.65842,595123
8.66318,596752
8.66793,595594
8.6727,618398
8.67747,590552
8.68222,608728
8.68698,591063
8.69175,621696
8.69652,598449
8.70127,628352
8.70603,607220
8.7108,616610
8.71555,630188
8.72032,624220
8.72508,611375
8.72985,602376
8.7346,587437
8.73937,594188
8.74413,622812
8.7489,574911
8.75365,577943
8.75842,581662
8.76318,545935
8.76793,539099
8.7727,568951
8.77747,568163
8.78223,577564
8.78698,567226
8.79175,575620
8.79652,573762
8.80127,574614
8.80603,603666
8.8108,562170
8.81557,567004
8.82032,574949
8.82508,562526
8.82985,580381
8.8346,569752
8.83937,555789
8.84413,551040
8.8489,575172
8.85365,564216
8.85842,578351
8.86318,593735
8.86793,541653
8.8727,570752
8.87747,576982
8.88223,562282
8.88698,571830
8.89175,574823
8.89652,568214
8.90127,607666
8.90603,566849
8.9108,557187
8.91557,539110
8.92032,588616
8.92508,571612
8.92985,540269
8.93462,563211
8.93937,554927
8.94413,554123
8.9489,542175
8.95365,556859
8.95842,545460
8.96318,549170
8.96795,546090
8.9727,580788
8.97747,534283
8.98223,555720
8.98698,532145
8.99175,561826
8.99652,573563
9.00128,592055
9.00603,669439
9.0108,688691
9.01557,709238
9.02032,723938
9.02508,743867
9.02985,703374
9.03462,684732
9.03937,656507
9.04413,668356
9.0489,617922
9.05365,604566
9.05842,583401
9.06318,556468
9.06795,571217
9.0727,572182
9.07747,566601
9.08223,566558
9.087,519078
9.09175,540963
9.09652,544107
9.10128,545782
9.10603,550213
9.1108,517702
9.11557,545392
9.12033,540220
9.12508,541233
9.12985,531172
9.13462,537255
9.13937,564985
9.14413,570180
9.1489,612971
9.15367,585249
9.15842,594413
9.16318,596182
9.16795,572263
9.1727,555157
9.17747,568528
9.18223,554525
9.187,513318
9.19175,539218
9.19652,516436
9.20128,537542
9.20603,550693
9.2108,526813
9.21557,520320
9.22033,521546
9.22508,523158
9.22985,556984
9.23462,534397
9.23937,517766
9.24413,524750
9.2489,505979
9.25367,542848
9.25842,548449
9.26318,535613
9.26795,562597
9.27272,516676
9.27747,530829
9.28223,505442
9.287,514127
9.29175,535447
9.29652,526200
9.30128,526125
9.30605,539425
9.3108,522225
9.31557,511416
9.32033,515472
9.32508,535517
9.32985,490717
9.33462,511162
9.33938,530540
9.34413,530215
9.3489,557245
9.35367,556375
9.35842,571243
9.36318,547976
9.36795,559744
9.37272,557940
9.37747,580398
9.38223,531415
9.387,561021
9.39175,560422
9.39652,569174
9.40128,538384
9.40605,545114
9.4108,542916
9.41557,555139
9.42033,554289
9.4251,525542
9.42985,558748
9.43462,534111
9.43938,530862
9.44413,546181
9.4489,502110
9.45367,532440
9.45843,511698
9.46318,499775
9.46795,495228
9.47272,490087
9.47747,491443
9.48223,465438
9.487,514954
9.49177,486819
9.49652,506869
9.50128,524647
9.50605,502296
9.5108,485130
9.51557,503706
9.52033,483675
9.5251,505786
9.52985,528416
9.53462,507412
9.53938,485241
9.54413,478517
9.5489,501068
9.55367,500360
9.55843,521559
9.56318,514216
9.56795,496772
9.57272,529965
9.57747,552563
9.58223,539272
9.587,523969
9.59177,554578
9.59652,559713
9.60128,525883
9.60605,528744
9.61082,541066
9.61557,537843
9.62033,496678
9.6251,533366
9.62985,553698
9.63462,557044
9.63938,557884
9.64415,560937
9.6489,566493
9.65367,577290
9.65843,540777
9.66318,554770
9.66795,507645
9.67272,537712
9.67748,503499
9.68223,512835
9.687,489421
9.69177,519953
9.69652,494319
9.70128,482180
9.70605,495617
9.71082,514038
9.71557,485771
9.72033,482900
9.7251,510207
9.72985,492817
9.73462,467001
9.73938,489276
9.74415,486003
9.7489,466057
9.75367,496661
9.75843,493272
9.76318,515642
9.76795,478087
9.77272,515996
9.77748,494124
9.78223,513112
9.787,497701
9.79177,492660
9.79653,523525
9.80128,464188
9.80605,487261
9.81082,491727
9.81557,482426
9.82033,469415
9.8251,492221
9.82987,511432
9.83462,486804
9.83938,508468
9.84415,486222
9.8489,498394
9.85367,502996
9.85843,498872
9.8632,511245
9.86795,489233
9.87272,513772
9.87748,460588
9.88223,502874
9.887,511235
9.89177,492959
9.89653,492104
9.90128,492406
9.90605,481400
9.91082,479826
9.91557,491532
9.92033,477844
9.9251,477441
9.92987,478524
9.93462,479583
9.93938,494650
9.94415,478584
9.94892,473037
9.95367,498135
9.95843,504404
9.9632,519816
9.96795,525665
9.97272,522661
9.97748,536144
9.98225,581374
9.987,631154
9.99177,703303
9.99653,703698
10.0013,754472
10.0061,734427
10.0108,712813
10.0156,625813
10.0203,596619
10.0251,578620
10.0299,541276
10.0346,549722
10.0394,524640
10.0442,525874
10.0489,499734
10.0537,503870
10.0584,509139
10.0632,545293
10.068,490304
10.0727,503454
10.0775,506565
10.0823,519472
10.087,521564
10.0918,511037
10.0965,538206
10.1013,548473
10.1061,527996
10.1108,561381
10.1156,575136
10.1203,587856
10.1251,582223
10.1299,616524
10.1346,638410
10.1394,621308
10.1442,635151
10.1489,582520
10.1537,590431
10.1584,554572
10.1632,549405
10.168,544620
10.1727,547320
10.1775,521808
10.1823,519286
10.187,550770
10.1918,521244
10.1965,529351
10.2013,542662
10.2061,586302
10.2108,593322
10.2156,590760
10.2203,593917
10.2251,579163
10.2299,595613
10.2346,580339
10.2394,548103
10.2442,543375
10.2489,520752
10.2537,522575
10.2584,512092
10.2632,528421
10.268,510541
10.2727,488141
10.2775,500804
10.2823,504649
10.287,465471
10.2918,510481
10.2965,509785
10.3013,530316
10.3061,501970
10.3108,484300
10.3156,496271
10.3204,489338
10.3251,494205
10.3299,490441
10.3346,504438
10.3394,484391
10.3442,458932
10.3489,517718
10.3537,483367
10.3584,484490
10.3632,504268
10.368,499354
10.3727,520982
10.3775,514734
10.3823,528477
10.387,497304
10.3918,548349
10.3965,524078
10.4013,506115
10.4061,487836
10.4108,506695
10.4156,515201
10.4204,510703
10.4251,482352
10.4299,520686
10.4346,513725
10.4394,541234
10.4442,534330
10.4489,518280
10.4537,540014
10.4584,500374
10.4632,492319
10.468,485130
10.4727,586730
10.4775,535800
10.4823,490731
10.487,524882
10.4918,531926
10.4965,506225
10.5013,577161
10.5061,626803
10.5108,679603
10.5156,679367
10.5204,726303
10.5251,672008
10.5299,632965
10.5346,598802
10.5394,570765
10.5442,529519
10.5489,519690
10.5537,519100
10.5584,511634
10.5632,544235
10.568,551460
10.5727,515215
10.5775,542653
10.5823,517229
10.587,534871
10.5918,519541
10.5965,563939
10.6013,552354
10.6061,564320
10.6108,535953
10.6156,506747
10.6204,554735
10.6251,525948
10.6299,506683
10.6346,498891
10.6394,505213
10.6442,526188
10.6489,526216
10.6537,502748
10.6585,509961
10.6632,506773
10.668,475297
10.6727,534915
10.6775,510607
10.6823,513388
10.687,508654
10.6918,516160
10.6965,540517
10.7013,538196
10.7061,565502
10.7108,559654
10.7156,581710
10.7204,596308
10.7251,586652
10.7299,549161
10.7346,573836
10.7394,528941
10.7442,529841
10.7489,521005
10.7537,605318
10.7585,698193
10.7632,834403
10.768,1117306
10.7727,1292311
10.7775,1427551
10.7823,1481024
10.787,1413990
10.7918,1200976
10.7965,1045487
10.8013,867226
10.8061,789245
10.8108,746252
10.8156,669533
10.8204,641649
10.8251,639827
10.8299,598566
10.8346,640382
10.8394,670936
10.8442,714645
10.8489,784865
10.8537,790514
10.8585,763666
10.8632,720185
10.868,696732
10.8727,687298
10.8775,626506
10.8823,635154
10.887,645665
10.8918,618215
10.8965,631460
10.9013,654073
10.9061,606905
10.9108,608852
10.9156,605554
10.9204,615921
10.9251,595129
10.9299,589669
10.9346,643822
10.9394,634385
10.9442,649739
10.9489,660707
10.9537,687982
10.9585,675650
10.9632,741289
10.968,791130
10.9727,851402
10.9775,895620
10.9823,917220
10.987,905233
10.9918,832912
10.9966,744721
11.0013,675314
11.0061,682415
11.0108,671500
11.0156,648462
11.0204,623113
11.0251,629863
11.0299,603106
11.0346,613809
11.0394,558298
11.0442,620044
11.0489,604285
11.0537,574517
11.0585,578430
11.0632,621890
11.068,586617
11.0727,538304
11.0775,552200
11.0823,559126
11.087,570195
11.0918,587192
11.0966,636912
11.1013,676056
11.1061,772776
11.1108,882847
11.1156,943702
11.1204,890932
11.1251,840235
11.1299,820008
11.1346,737659
11.1394,632861
11.1442,624575
11.1489,644493
11.1537,623032
11.1585,591798
11.1632,596640
11.168,570079
11.1727,564126
11.1775,575299
11.1823,584027
11.187,577006
11.1918,588633
11.1966,581188
11.2013,582881
11.2061,578311
11.2108,556817
11.2156,548615
11.2204,549428
11.2251,544499
11.2299,585530
11.2346,570351
11.2394,555329
11.2442,570062
11.2489,536605
11.2537,554259
11.2585,560075
11.2632,563893
11.268,585136
11.2727,608626
11.2775,598241
11.2823,582497
11.287,565551
11.2918,559197
11.2966,540846
11.3013,549722
11.3061,549987
11.3108,569131
11.3156,586021
11.3204,597239
11.3251,559219
11.3299,583119
11.3347,582163
11.3394,566776
11.3442,548538
11.3489,556156
11.3537,556412
11.3585,537936
11.3632,539344
11.368,555540
11.3727,545217
11.3775,530430
11.3823,548304
11.387,578008
11.3918,576235
11.3966,516999
11.4013,558336
11.4061,570225
11.4108,539001
11.4156,570420
11.4204,579684
11.4251,607814
11.4299,576730
11.4347,591873
11.4394,562147
11.4442,576002
11.4489,557126
11.4537,557752
11.4585,573798
11.4632,589179
11.468,576562
11.4727,566703
11.4775,593274
11.4823,573039
11.487,600742
11.4918,588119
11.4966,586257
11.5013,615897
11.5061,603572
11.5108,600010
11.5156,562744
11.5204,559973
11.5251,559414
11.5299,542741
11.5347,588333
11.5394,525787
11.5442,552559
11.5489,594818
11.5537,569639
11.5585,584785
11.5632,565928
11.568,569996
11.5727,563748
11.5775,555797
11.5823,538045
11.587,554850
11.5918,571841
11.5966,588121
11.6013,615617
11.6061,663045
11.6108,662327
11.6156,697039
11.6204,668707
11.6251,660038
11.6299,646986
11.6347,604177
11.6394,582189
11.6442,537734
11.6489,599057
11.6537,551595
11.6585,585638
11.6632,606682
11.668,631084
11.6728,731947
11.6775,806050
11.6823,844971
11.687,778417
11.6918,724787
11.6966,686895
11.7013,652260
11.7061,735918
11.7108,730598
11.7156,746279
11.7204,700302
11.7251,673018
11.7299,612589
11.7347,596531
11.7394,586492
11.7442,599585
11.7489,596186
11.7537,551812
11.7585,593627
11.7632,564845
11.768,580466
11.7728,531445
11.7775,560690
11.7823,595100
11.787,608097
11.7918,597930
11.7966,587311
11.8013,578551
11.8061,603183
11.8108,568854
11.8156,541830
11.8204,584705
11.8251,600190
11.8299,573049
11.8347,567690
11.8394,581740
11.8442,573972
11.8489,579289
11.8537,598663
11.8585,579981
11.8632,574758
11.868,597915
11.8728,600168
11.8775,569724
11.8823,630499
11.887,604610
11.8918,600809
11.8966,609106
11.9013,611011
11.9061,610664
11.9108,613627
11.9156,593473
11.9204,570911
11.9251,652183
11.9299,590389
11.9347,592140
11.9394,600435
11.9442,609084
11.9489,596246
11.9537,585973
11.9585,614925
11.9632,632830
11.968,576309
11.9728,588489
11.9775,571216
11.9823,594387
11.987,584488
11.9918,572107
11.9966,576251
12.0013,570260
12.0061,600813
12.0109,598530
12.0156,609088
12.0204,637265
12.0251,598080
12.0299,625578
12.0347,608274
12.0394,628084
12.0442,578761
12.0489,584580
12.0537,610196
12.0585,645961
12.0632,603346
12.068,607696
12.0728,583404
12.0775,597419
12.0823,589646
12.087,602922
12.0918,616113
12.0966,578728
12.1013,622210
12.1061,649006
12.1109,666088
12.1156,757954
12.1204,794662
12.1251,804252
12.1299,805603
12.1347,733560
12.1394,690365
12.1442,657077
12.1489,651511
12.1537,628924
12.1585,598704
12.1632,576770
12.168,586818
12.1728,615530
12.1775,644892
12.1823,617542
12.187,649354
12.1918,656768
12.1966,663236
12.2013,635707
12.2061,592933
12.2109,648409
12.2156,629815
12.2204,590111
12.2251,639222
12.2299,613448
12.2347,619094
12.2394,619298
12.2442,588505
12.2489,581227
12.2537,609325
12.2585,586824
12.2632,552308
12.268,557857
12.2728,594418
12.2775,578570
12.2823,609904
12.287,629941
12.2918,597469
12.2966,588230
12.3013,617477
12.3061,617259
12.3109,648673
12.3156,735783
12.3204,816604
12.3251,834909
12.3299,848308
12.3347,765876
12.3394,692367
12.3442,651130
12.349,611736
12.3537,620491
12.3585,599866
12.3632,581538
12.368,602946
12.3728,628811
12.3775,644886
12.3823,665417
12.387,634528
12.3918,654280
12.3966,669366
12.4013,671391
12.4061,658917
12.4109,693027
12.4156,667820
12.4204,681178
12.4251,675697
12.4299,679380
12.4347,696814
12.4394,692799
12.4442,723437
12.449,719806
12.4537,748365
12.4585,728829
12.4632,751936
12.468,716109
12.4728,712786
12.4775,763978
12.4823,801063
12.487,843679
12.4918,858602
12.4966,859140
12.5013,804507
12.5061,756028
12.5109,730899
12.5156,734556
12.5204,668696
12.5251,668044
12.5299,637572
12.5347,669839
12.5394,667719
12.5442,695537
12.549,687631
12.5537,723979
12.5585,660994
12.5632,686756
12.568,679619
12.5728,636284
12.5775,635801
12.5823,651206
12.587,621013
12.5918,641271
12.5966,650992
12.6013,677738
12.6061,629967
12.6109,673926
12.6156,696489
12.6204,654353
12.6251,657617
12.6299,672031
12.6347,696891
12.6394,679249
12.6442,641651
12.649,680966
12.6537,654046
12.6585,656450
12.6632,632526
12.668,612985
12.6728,637108
12.6775,668812
12.6823,661539
12.687,691843
12.6918,727326
12.6966,710110
12.7013,685721
12.7061,671104
12.7109,667536
12.7156,648090
12.7204,641798
12.7251,660838
12.7299,665542
12.7347,637262
12.7394,646002
12.7442,647862
12.749,621751
12.7537,666475
12.7585,622102
12.7632,652397
12.768,667748
12.7728,653836
12.7775,711397
12.7823,664719
12.7871,686315
12.7918,684186
12.7966,670774
12.8013,678096
12.8061,669328
12.8109,691750
12.8156,671821
12.8204,635861
12.8251,659088
12.8299,658207
12.8347,666624
12.8394,657067
12.8442,668507
12.849,626973
12.8537,612482
12.8585,629154
12.8632,649294
12.868,665587
12.8728,641306
12.8775,651402
12.8823,658664
12.8871,659340
12.8918,652385
12.8966,662476
12.9013,647717
12.9061,632838
12.9109,647151
12.9156,668113
12.9204,644335
12.9251,649620
12.9299,643530
12.9347,454303
12.9394,598927
12.9442,656333
12.949,647444
12.9537,680313
12.9585,675733
12.9632,672758
12.968,640381
12.9728,658079
12.9775,655665
12.9823,648420
12.9871,634062
12.9918,658206
12.9966,662354
13.0013,673844
13.0061,686672
13.0109,714181
13.0156,675225
13.0204,659739
13.0251,672889
13.0299,692544
13.0347,635210
13.0394,686059
13.0442,673683
13.049,649648
13.0537,661260
13.0585,666359
13.0632,653478
13.068,663529
13.0728,674397
13.0775,677090
13.0823,667772
13.0871,707719
13.0918,683491
13.0966,660188
13.1013,668608
13.1061,641711
13.1109,645879
13.1156,630560
13.1204,689903
13.1252,648257
13.1299,657768
13.1347,648652
13.1394,659238
13.1442,666173
13.149,671639
13.1537,726300
13.1585,674643
13.1632,715637
13.168,775817
13.1728,755447
13.1775,755768
13.1823,666444
13.1871,676944
13.1918,662641
13.1966,721240
13.2013,758337
13.2061,807646
13.2109,802878
13.2156,797647
13.2204,727790
13.2252,713539
13.2299,668141
13.2347,669849
13.2394,657019
13.2442,663574
13.249,694044
13.2537,671870
13.2585,678946
13.2632,665885
13.268,698589
13.2728,669018
13.2775,644094
13.2823,644737
13.2871,666457
13.2918,652182
13.2966,625096
13.3013,626744
13.3061,643831
13.3109,696216
13.3156,655044
13.3204,673155
13.3252,657404
13.3299,659183
13.3347,667454
13.3394,644301
13.3442,685093
13.349,653773
13.3537,669236
13.3585,657693
13.3632,648166
13.368,675864
13.3728,682575
13.3775,709788
13.3823,678586
13.3871,650191
13.3918,654477
13.3966,691728
13.4013,658444
13.4061,679079
13.4109,699120
13.4156,723845
13.4204,822662
13.4252,841318
13.4299,849567
13.4347,891116
13.4394,846169
13.4442,793469
13.449,578000
13.4537,748809
13.4585,757980
13.4633,751551
13.468,827707
13.4728,838499
13.4775,820446
13.4823,797047
13.4871,746984
13.4918,714217
13.4966,750997
13.5013,691649
13.5061,722921
13.5109,688160
13.5156,664852
13.5204,675832
13.5252,665037
13.5299,680042
13.5347,652244
13.5394,663615
13.5442,652256
13.549,653271
13.5537,658121
13.5585,668988
13.5633,658801
13.568,622177
13.5728,663664
13.5775,691023
13.5823,660739
13.5871,650628
13.5918,658306
13.5966,660221
13.6013,660328
13.6061,675156
13.6109,677417
13.6156,626461
13.6204,645050
13.6252,667151
13.6299,724303
13.6347,730735
13.6394,709579
13.6442,719926
13.649,685322
13.6537,691594
13.6585,728733
13.6633,686547
13.668,668354
13.6728,693160
13.6775,681859
13.6823,650430
13.6871,679071
13.6918,683086
13.6966,696920
13.7013,662968
13.7061,691159
13.7109,676643
13.7156,660075
13.7204,691370
13.7252,669633
13.7299,643280
13.7347,663211
13.7394,707789
13.7442,731358
13.749,725189
13.7537,730684
13.7585,791993
13.7633,792993
13.768,768296
13.7728,756104
13.7775,727756
13.7823,734408
13.7871,661993
13.7918,707399
13.7966,670441
13.8014,682450
13.8061,659722
13.8109,702553
13.8156,669003
13.8204,696751
13.8252,655954
13.8299,680107
13.8347,677755
13.8394,652392
13.8442,671249
13.849,647810
13.8537,711218
13.8585,743386
13.8633,734605
13.868,771241
13.8728,858957
13.8775,885532
13.8823,895626
13.8871,976990
13.8918,1076826
13.8966,1171366
13.9014,1261020
13.9061,1195713
13.9109,1140085
13.9156,1020459
13.9204,917084
13.9252,832942
13.9299,841317
13.9347,845668
13.9394,760202
13.9442,762201
13.949,752078
13.9537,789590
13.9585,744919
13.9633,811512
13.968,835114
13.9728,885279
13.9775,864975
13.9823,815558
13.9871,806197
13.9918,762268
13.9966,764973
14.0014,736306
14.0061,731078
14.0109,714260
14.0156,749855
14.0204,733681
14.0252,670272
14.0299,738941
14.0347,734949
14.0394,718740
14.0442,734197
14.049,776080
14.0537,785683
14.0585,793246
14.0633,795429
14.068,785959
14.0728,747195
14.0775,738721
14.0823,717192
14.0871,714563
14.0918,710389
14.0966,691115
14.1014,695427
14.1061,694199
14.1109,702320
14.1156,683998
14.1204,742145
14.1252,725108
14.1299,730808
14.1347,756114
14.1395,771748
14.1442,756447
14.149,815928
14.1537,917345
14.1585,919181
14.1633,1007020
14.168,985481
14.1728,864828
14.1775,842434
14.1823,808581
14.1871,796371
14.1918,816205
14.1966,823210
14.2014,915199
14.2061,957602
14.2109,934116
14.2156,867316
14.2204,871867
14.2252,926413
14.2299,1049163
14.2347,1211057
14.2395,1418417
14.2442,1398000
14.249,1331252
14.2537,1137967
14.2585,1015819
14.2633,911214
14.268,896638
14.2728,834202
14.2775,811481
14.2823,790306
14.2871,764862
14.2918,751302
14.2966,756529
14.3014,755480
14.3061,769535
14.3109,761106
14.3156,764892
14.3204,753711
14.3252,796523
14.3299,791034
14.3347,773625
14.3395,769497
14.3442,762070
14.349,778502
14.3537,772165
14.3585,759376
14.3633,769865
14.368,770979
14.3728,758179
14.3775,787765
14.3823,769552
14.3871,828427
14.3918,828747
14.3966,774854
14.4014,820829
14.4061,802979
14.4109,800725
14.4156,807361
14.4204,820396
14.4252,768451
14.4299,787261
14.4347,788292
14.4395,780424
14.4442,800392
14.449,835991
14.4537,808919
14.4585,773333
14.4633,776194
14.468,793519
14.4728,794914
14.4776,828750
14.4823,885015
14.4871,968268
14.4918,996212
14.4966,1047001
14.5014,1031413
14.5061,972491
14.5109,887214
14.5156,856170
14.5204,815139
14.5252,852274
14.5299,885362
14.5347,840587
14.5395,839418
14.5442,853977
14.549,819584
14.5537,756549
14.5585,832320
14.5633,808657
14.568,775125
14.5728,803777
14.5776,797019
14.5823,776670
14.5871,810494
14.5918,781025
14.5966,790584
14.6014,812203
14.6061,766707
14.6109,788032
14.6156,760069
14.6204,838755
14.6252,814427
14.6299,797994
14.6347,813499
14.6395,833003
14.6442,815921
14.649,804247
14.6537,790583
14.6585,790316
14.6633,810078
14.668,765076
14.6728,821402
14.6776,801692
14.6823,820059
14.6871,740355
14.6918,797439
14.6966,744617
14.7014,772175
14.7061,809462
14.7109,802669
14.7156,780305
14.7204,809701
14.7252,774309
14.7299,836452
14.7347,824485
14.7395,830268
14.7442,877418
14.749,940721
14.7537,975787
14.7585,993185
14.7633,1016742
14.768,902819
14.7728,881537
14.7776,845011
14.7823,823672
14.7871,804639
14.7918,783093
14.7966,812946
14.8014,792667
14.8061,786615
14.8109,796687
14.8157,800645
14.8204,791344
14.8252,772544
14.8299,790960
14.8347,825371
14.8395,771663
14.8442,766139
14.849,789725
14.8537,781882
14.8585,840171
14.8633,809048
14.868,779153
14.8728,825491
14.8776,791114
14.8823,804989
14.8871,823502
14.8918,811916
14.8966,774135
14.9014,795998
14.9061,802647
14.9109,810835
14.9157,802438
14.9204,793364
14.9252,802224
14.9299,753815
14.9347,816064
14.9395,802294
14.9442,804003
14.949,798360
14.9537,818595
14.9585,790045
14.9633,830504
14.968,826542
14.9728,824311
14.9776,794598
14.9823,777038
14.9871,809926
14.9918,798963
14.9966,779809
15.0014,835540
15.0061,768617
15.0109,806205
15.0157,798293
15.0204,807475
15.0252,795407
15.0299,811945
15.0347,809377
15.0395,829415
15.0442,813007
15.049,839459
15.0537,828706
15.0585,822899
15.0633,826848
15.068,778923
15.0728,842768
15.0776,812299
15.0823,812372
15.0871,828090
15.0918,820083
15.0966,825921
15.1014,825226
15.1061,797515
15.1109,833509
15.1157,792056
15.1204,837728
15.1252,841272
15.1299,837916
15.1347,811680
15.1395,862282
15.1442,816183
15.149,780439
15.1538,828923
15.1585,847475
15.1633,839603
15.168,842692
15.1728,810298
15.1776,823164
15.1823,833507
15.1871,806030
15.1918,867296
15.1966,904205
15.2014,868239
15.2061,864492
15.2109,851815
15.2157,850983
15.2204,849100
15.2252,823000
15.2299,869493
15.2347,859401
15.2395,885532
15.2442,840100
15.249,888906
15.2538,847055
15.2585,862623
15.2633,874879
15.268,860928
15.2728,918627
15.2776,849042
15.2823,864553
15.2871,839221
15.2918,840398
15.2966,872502
15.3014,843388
15.3061,869194
15.3109,865656
15.3157,852774
15.3204,829433
15.3252,876370
15.3299,840953
15.3347,870147
15.3395,875295
15.3442,860262
15.349,878179
15.3538,864897
15.3585,887364
15.3633,841824
15.368,850283
15.3728,830741
15.3776,855292
15.3823,836475
15.3871,892070
15.3918,897232
15.3966,890426
15.4014,838990
15.4061,920469
15.4109,875458
15.4157,886147
15.4204,891295
15.4252,895562
15.4299,900925
15.4347,872868
15.4395,879084
15.4442,908592
15.449,881541
15.4538,893716
15.4585,908820
15.4633,922573
15.468,998761
15.4728,988370
15.4776,988634
15.4823,999232
15.4871,1001858
15.4919,947748
15.4966,905786
15.5014,953551
15.5061,916756
15.5109,934037
15.5157,895228
15.5204,977495
15.5252,947081
15.5299,1023389
15.5347,1066854
15.5395,1081610
15.5442,1105421
15.549,1040162
15.5538,1004520
15.5585,955347
15.5633,914199
15.568,952951
15.5728,914050
15.5776,929277
15.5823,928658
15.5871,914658
15.5919,909969
15.5966,880902
15.6014,961047
15.6061,939070
15.6109,964098
15.6157,933559
15.6204,960657
15.6252,958828
15.6299,920639
15.6347,942865
15.6395,941449
15.6442,922686
15.649,954601
15.6538,953835
15.6585,959887
15.6633,942551
15.668,1007165
15.6728,1082807
15.6776,1139035
15.6823,1200957
15.6871,1281844
15.6919,1243489
15.6966,1224040
15.7014,1098556
15.7061,1073879
15.7109,1017717
15.7157,1030146
15.7204,1049648
15.7252,1030034
15.7299,1034496
15.7347,1146552
15.7395,1093208
15.7442,1112115
15.749,1095400
15.7538,1174126
15.7585,1164508
15.7633,1176353
15.768,1131265
15.7728,1088725
15.7776,1128165
15.7823,1084427
15.7871,1047284
15.7919,1089950
15.7966,1109055
15.8014,1125275
15.8061,1111189
15.8109,1084966
15.8157,1098070
15.8204,1089253
15.8252,1019876
15.83,1061115
15.8347,1012298
15.8395,1105414
15.8442,1040130
15.849,1068288
15.8538,1073741
15.8585,1108968
15.8633,1125608
15.868,1148442
15.8728,1096468
15.8776,1124628
15.8823,1200105
15.8871,1176581
15.8919,1157132
15.8966,1185341
15.9014,1162534
15.9061,1151513
15.9109,1186901
15.9157,1162908
15.9204,1136036
15.9252,1131525
15.93,1150397
15.9347,1142707
15.9395,1151442
15.9442,1134340
15.949,1183896
15.9538,1215711
15.9585,1209596
15.9633,1172124
15.968,1139666
15.9728,1137685
15.9776,1200635
15.9823,1139847
15.9871,1164189
15.9919,1180152
15.9966,1194498
16.0014,1204297
16.0061,1169421
16.0109,1151475
16.0157,1279397
16.0204,1409400
16.0252,1582325
16.0299,1608014
16.0347,1552822
16.0395,1445258
16.0442,1303946
16.049,1327945
16.0538,1269534
16.0585,1215960
16.0633,1256567
16.068,1251937
16.0728,1213370
16.0776,1259346
16.0823,1301801
16.0871,1304952
16.0919,1254926
16.0966,1306018
16.1014,1264420
16.1061,1256098
16.1109,1286911
16.1157,1291559
16.1204,1247196
16.1252,1288014
16.13,1274483
16.1347,1306848
16.1395,1343807
16.1442,1309656
16.149,1336065
16.1537,1288483
16.1585,1278088
16.1633,1334589
16.1681,1259563
16.1728,1351076
16.1776,1313450
16.1823,1304060
16.1871,1347225
16.1918,1345397
16.1966,1387284
16.2014,1348008
16.2061,1333603
16.2109,1363990
16.2157,1388608
16.2204,1367303
16.2252,1387761
16.2299,1403489
16.2347,1425747
16.2395,1433311
16.2442,1386107
16.249,1391321
16.2538,1431356
16.2585,1422838
16.2633,1433365
16.268,1452662
16.2728,1403011
16.2776,1412444
16.2823,1453907
16.2871,1434206
16.2919,1455616
16.2966,1440460
16.3014,1505355
16.3061,1538869
16.3109,1420966
16.3157,1484720
16.3204,1515767
16.3252,1522104
16.33,1504026
16.3347,1540040
16.3395,1524003
16.3442,1490534
16.349,1562816
16.3538,1529653
16.3585,1570167
16.3633,1642031
16.3681,1790410
16.3728,1906617
16.3776,1859899
16.3823,1772910
16.3871,1667093
16.3919,1652801
16.3966,1686194
16.4014,1687752
16.4061,1839487
16.4109,2024893
16.4157,2106600
16.4204,2044480
16.4252,1787696
16.43,1687102
16.4347,1672220
16.4395,1604159
16.4442,1696085
16.449,1712453
16.4538,1781096
16.4585,1875062
16.4633,1988297
16.4681,1960158
16.4728,1965533
16.4776,1888155
16.4823,1770983
16.4871,1816464
16.4918,1735788
16.4966,1752202
16.5014,1789103
16.5062,1717767
16.5109,1815657
16.5157,1794162
16.5204,1774517
16.5252,1796515
16.5299,1814716
16.5347,1799317
16.5395,1806020
16.5442,1816792
16.549,1827270
16.5538,1851840
16.5585,1901559
16.5633,1829919
16.568,1880525
16.5728,1823188
16.5776,1868737
16.5823,1834586
16.5871,1801690
16.5919,1901976
16.5966,1831276
16.6014,1874604
16.6062,1912434
16.6109,1942948
16.6157,2002485
16.6204,2037980
16.6252,2072297
16.63,1983223
16.6347,1971593
16.6395,1948596
16.6442,1914352
16.649,1910665
16.6538,2044527
16.6585,2036977
16.6633,1969256
16.6681,1948081
16.6728,1998377
16.6776,1981606
16.6823,1925722
16.6871,1976323
16.6919,1924968
16.6966,1988421
16.7014,1995393
16.7062,1982861
16.7109,2045127
16.7157,1966582
16.7204,1988267
16.7252,2070791
16.7299,2036427
16.7347,1957057
16.7395,2021271
16.7442,1962666
16.749,2035654
16.7538,2091150
16.7585,2055078
16.7633,1986625
16.768,2021105
16.7728,2103381
16.7776,2104153
16.7823,2105788
16.7871,2042506
16.7919,2074659
16.7966,2074625
16.8014,2201097
16.8061,2191887
16.8109,2253180
16.8157,2128832
16.8204,2188055
16.8252,2129019
16.83,2169593
16.8347,2184268
16.8395,2224539
16.8442,2163851
16.849,2141193
16.8538,2236201
16.8585,2231521
16.8633,2302217
16.8681,2227172
16.8728,2225142
16.8776,2159991
16.8823,2188626
16.8871,2130944
16.8919,2196899
16.8966,2179022
16.9014,2210625
16.9062,2195332
16.9109,2292944
16.9157,2278048
16.9204,2357957
16.9252,2386634
16.93,2330792
16.9347,2354439
16.9395,2331427
16.9443,2345815
16.949,2330522
16.9538,2346602
16.9585,2416041
16.9633,2299078
16.9681,2360121
16.9728,2404910
16.9776,2465679
16.9823,2560874
16.9871,2655979
16.9919,2461358
16.9966,2429201
17.0014,2426520
17.0062,2645028
17.0109,2898357
17.0157,3355277
17.0204,3393326
17.0252,2952308
17.03,2665675
17.0347,2507939
17.0395,2463702
17.0443,2385370
17.049,2368879
17.0538,2455556
17.0585,2426901
17.0633,2453886
17.068,2448146
17.0728,2429313
17.0776,2483904
17.0823,2455947
17.0871,2437363
17.0919,2436810
17.0966,2477234
17.1014,2456798
17.1062,2462206
17.1109,2490386
17.1157,2466696
17.1204,2471302
17.1252,2506287
17.13,2920204
17.1347,4151059
17.1395,6050593
17.1443,7447536
17.149,6992488
17.1538,5501560
17.1585,4042677
17.1633,3149641
17.1681,2853246
17.1728,2709433
17.1776,2669621
17.1824,2634923
17.1871,2650648
17.1919,2626327
17.1966,2638112
17.2014,2629713
17.2062,2592600
17.2109,2621277
17.2157,2592474
17.2204,2555445
17.2252,2579809
17.23,2547728
17.2347,2566144
17.2395,2579700
17.2443,2545339
17.249,2578806
17.2538,2573579
17.2585,2581813
17.2633,2575125
17.268,2653157
17.2728,2594090
17.2776,2598153
17.2824,2572058
17.2871,2629399
17.2919,2588829
17.2966,2687643
17.3014,3347452
17.3061,4887548
17.3109,7782102
17.3157,10926569
17.3204,11415040
17.3252,8853980
17.33,5852104
17.3347,4156862
17.3395,3418819
17.3442,2969224
17.349,2928614
17.3538,2866910
17.3585,2788379
17.3633,2763053
17.3681,2734433
17.3728,2818235
17.3776,2698038
17.3823,2731754
17.3871,2623124
17.3919,2760910
17.3966,2745376
17.4014,2736961
17.4062,2693245
17.4109,2718233
17.4157,2733684
17.4204,2720122
17.4252,2698938
17.43,2733292
17.4347,2716803
17.4395,2700264
17.4443,2678692
17.449,2643609
17.4538,2726739
17.4585,2749409
17.4633,2732055
17.4681,2714763
17.4728,2731681
17.4776,2816378
17.4824,2782961
17.4871,2745023
17.4919,2686748
17.4966,2745369
17.5014,2734837
17.5062,2809402
17.5109,2744679
17.5157,2724673
17.5205,2773689
17.5252,2741049
17.53,2812192
17.5347,2797251
17.5395,2776352
17.5443,2779971
17.549,2744656
17.5538,2708737
17.5585,2776704
17.5633,2817561
17.5681,2782634
17.5728,2784565
17.5776,2818691
17.5824,2823829
17.5871,2811600
17.5919,2864968
17.5966,2986591
17.6014,3229797
17.6062,3305626
17.6109,3337643
17.6157,3189976
17.6205,3030924
17.6252,2893779
17.63,2828900
17.6347,2839977
17.6395,2961247
17.6443,3542521
17.649,5485967
17.6538,10265311
17.6585,18819722
17.6633,25323418
17.6681,27394376
17.6728,22323230
17.6776,14156152
17.6824,8174493
17.6871,5440249
17.6919,4399724
17.6966,3753052
17.7014,3483076
17.7062,3376083
17.7109,3225205
17.7157,3198368
17.7205,3188549
17.7252,3061914
17.73,2971916
17.7347,2952215
17.7395,2943443
17.7443,2907483
17.749,2882450
17.7538,2932730
17.7585,2991331
17.7633,2986433
17.7681,3065589
17.7728,3252766
17.7776,3603406
17.7824,4213671
17.7871,4719300
17.7919,4749784
17.7966,4332023
17.8014,3731404
17.8062,3386729
17.8109,3155121
17.8157,3027609
17.8205,2992968
17.8252,3020222
17.83,2889877
17.8347,2950957
17.8395,2873776
17.8443,2919761
17.849,2977445
17.8538,2902730
17.8586,2951821
17.8633,2917824
17.8681,2838399
17.8728,2823035
17.8776,2819271
17.8824,2879490
17.8871,2870497
17.8919,2922763
17.8966,2934876
17.9014,2925103
17.9062,2979780
17.9109,3089118
17.9157,3385609
17.9205,3523570
17.9252,3493352
17.93,3332100
17.9347,3213198
17.9395,3098194
17.9443,3136063
17.949,3094146
17.9538,3175467
17.9586,3108486
17.9633,3068829
17.9681,3024774
17.9728,3072440
17.9776,2985668
17.9824,2875815
17.9871,2978627
17.9919,2904022
17.9966,2838404
18.0014,2999031
18.0062,3017793
18.0109,2933154
18.0157,2869904
18.0205,2916267
18.0252,2879564
18.03,2922165
18.0347,2911521
18.0395,2931792
18.0443,2903342
18.049,2919961
18.0538,2896173
18.0586,2917649
18.0633,2994224
18.0681,3091595
18.0728,3308347
18.0776,4199647
18.0824,7672341
18.0871,16309062
18.0919,33581056
18.0966,55469340
18.1014,65556496
18.1062,57784488
18.1109,37594156
18.1157,21239770
18.1205,12241762
18.1252,8006138
18.13,6188990
18.1347,5182506
18.1395,4871722
18.1443,4707393
18.149,5158382
18.1538,5620939
18.1586,6405169
18.1633,6539804
18.1681,6039096
18.1728,5167052
18.1776,4549516
18.1824,4020083
18.1871,3589250
18.1919,3540351
18.1966,3404079
18.2014,3401840
18.2062,3309377
18.2109,3222297
18.2157,3193274
18.2205,3179924
18.2252,3200425
18.23,3118968
18.2347,3128832
18.2395,3114351
18.2443,3123425
18.249,3102722
18.2538,3101121
18.2586,3044393
18.2633,3172530
18.2681,3439534
18.2728,4761998
18.2776,8817993
18.2824,17663328
18.2871,32194470
18.2919,46747276
18.2967,53507760
18.3014,47562716
18.3062,33105566
18.3109,20344096
18.3157,12644821
18.3205,8491830
18.3252,6469137
18.33,5436780
18.3347,4850916
18.3395,4512709
18.3443,4249295
18.349,4050444
18.3538,3761479
18.3586,3835244
18.3633,3693061
18.3681,3496123
18.3728,3549589
18.3776,3450921
18.3824,3303803
18.3871,3382533
18.3919,3338505
18.3967,3195687
18.4014,3273794
18.4062,3223454
18.4109,3165564
18.4157,3214867
18.4205,3222154
18.4252,3116410
18.43,3144369
18.4347,3149424
18.4395,3078083
18.4443,3112674
18.449,3121050
18.4538,3085487
18.4586,3085085
18.4633,3077609
18.4681,3017787
18.4728,3076114
18.4776,3088824
18.4824,3143112
18.4871,3061241
18.4919,3030441
18.4967,3118037
18.5014,3028260
18.5062,3051414
18.5109,3072488
18.5157,3020870
18.5205,3063022
18.5252,2973097
18.53,3055306
18.5347,3020347
18.5395,3017945
18.5443,2963192
18.549,3008757
18.5538,3011305
18.5586,2967921
18.5633,2972022
18.5681,3020437
18.5728,3033247
18.5776,2997823
18.5824,3033521
18.5871,3051104
18.5919,3022467
18.5967,3045009
18.6014,3019285
18.6062,3009528
18.6109,3107268
18.6157,3102155
18.6205,3290413
18.6252,3449400
18.63,3606414
18.6348,3696457
18.6395,3640061
18.6443,3493206
18.649,3297025
18.6538,3279774
18.6586,3160215
18.6633,3098489
18.6681,3092803
18.6728,3193030
18.6776,3372155
18.6824,4170286
18.6871,6310122
18.6919,10321769
18.6967,16144100
18.7014,22368356
18.7062,26473004
18.7109,25220964
18.7157,19230614
18.7205,13462776
18.7252,9050220
18.73,6304013
18.7348,5010415
18.7395,4285610
18.7443,3905317
18.749,3733105
18.7538,3513704
18.7586,3392516
18.7633,3406704
18.7681,3408756
18.7728,3334388
18.7776,3154250
18.7824,3231582
18.7871,3194065
18.7919,3191824
18.7967,3122226
18.8014,3165853
18.8062,3140480
18.8109,3086276
18.8157,3119642
18.8205,3120778
18.8252,3068190
18.83,3302274
18.8348,3634983
18.8395,4081054
18.8443,4648633
18.849,5030281
18.8538,5201981
18.8586,4856688
18.8633,4407959
18.8681,3921755
18.8728,3630751
18.8776,3390746
18.8824,3354086
18.8871,3209377
18.8919,3260143
18.8967,3199673
18.9014,3085779
18.9062,3074918
18.9109,3082375
18.9157,3086057
18.9205,3106672
18.9252,3092146
18.93,3072205
18.9348,3075821
18.9395,3065654
18.9443,3016036
18.949,2961139
18.9538,3038358
18.9586,3042881
18.9633,2943300
18.9681,3026051
18.9729,3137085
18.9776,3025761
18.9824,2973193
18.9871,2988236
18.9919,3007867
18.9967,3053998
19.0014,3042153
19.0062,3038553
19.0109,2994613
19.0157,2965224
19.0205,2998527
19.0252,3010394
19.03,3056670
19.0348,2969311
19.0395,2941181
19.0443,3009625
19.049,3055826
19.0538,3010649
19.0586,2986939
19.0633,3020745
19.0681,3018343
19.0729,2999673
19.0776,2931382
19.0824,3045888
19.0871,3027358
19.0919,2995663
19.0967,2956571
19.1014,3039480
19.1062,2957767
19.1109,2989836
19.1157,2965046
19.1205,2980157
19.1252,3023226
19.13,3048682
19.1348,2964086
19.1395,3026605
19.1443,3002732
19.149,2981513
19.1538,2915001
19.1586,2957467
19.1633,2982335
19.1681,3019404
19.1729,3089852
19.1776,2902105
19.1824,2951965
19.1871,2968719
19.1919,3035532
19.1967,3016286
19.2014,3309823
19.2062,3709604
19.2109,4506291
19.2157,6362342
19.2205,9099370
19.2252,12426477
19.23,15504050
19.2348,16666247
19.2395,15426172
19.2443,12596102
19.249,9710455
19.2538,7175457
19.2586,5568945
19.2633,4497889
19.2681,4033255
19.2729,3680377
19.2776,3490394
19.2824,3438624
19.2871,3324135
19.2919,3438768
19.2967,3484484
19.3014,3623477
19.3062,3715891
19.311,3882187
19.3157,3979864
19.3205,3877118
19.3252,3603136
19.33,3467729
19.3348,3307771
19.3395,3202136
19.3443,3166446
19.349,3126175
19.3538,3066473
19.3586,3094231
19.3633,2988843
19.3681,3095838
19.3729,3103693
19.3776,2921302
19.3824,3012985
19.3871,3039525
19.3919,3019847
19.3967,2952366
19.4014,3038103
19.4062,2970467
19.411,3004023
19.4157,2954009
19.4205,3037335
19.4252,2944317
19.43,2948101
19.4348,3032533
19.4395,3088575
19.4443,3038485
19.449,3369984
19.4538,3786206
19.4586,4637188
19.4633,6358262
19.4681,8497572
19.4729,11711765
19.4776,14678591
19.4824,16565745
19.4871,16391801
19.4919,14072239
19.4967,11246778
19.5014,8475012
19.5062,6541406
19.511,5106144
19.5157,4374607
19.5205,3953718
19.5252,3700739
19.53,3475355
19.5348,3385668
19.5395,3403446
19.5443,3297428
19.549,3156128
19.5538,3201910
19.5586,3202319
19.5633,3156689
19.5681,3081781
19.5729,3113481
19.5776,3149955
19.5824,3130127
19.5871,3112339
19.5919,3157519
19.5967,3111067
19.6014,3081246
19.6062,3044118
19.611,2995509
19.6157,3097408
19.6205,3043836
19.6252,3084443
19.63,3068486
19.6348,3013395
19.6395,2986684
19.6443,3076198
19.6491,2968487
19.6538,3098900
19.6586,3019640
19.6633,2959051
19.6681,3017859
19.6729,2915193
19.6776,2945754
19.6824,2946756
19.6871,2949857
19.6919,2937693
19.6967,3076461
19.7014,3003621
19.7062,2984122
19.711,3031360
19.7157,3019423
19.7205,2964317
19.7252,3013856
19.73,2937054
19.7348,2949237
19.7395,2986007
19.7443,2954299
19.7491,2953033
19.7538,2986860
19.7586,2997099
19.7633,2985978
19.7681,2989485
19.7729,2978641
19.7776,2994485
19.7824,2940812
19.7871,3039580
19.7919,2958642
19.7967,2984709
19.8014,2930536
19.8062,2951384
19.811,2920111
19.8157,2945710
19.8205,3015200
19.8252,2967108
19.83,2933011
19.8348,2952851
19.8395,2879934
19.8443,3006453
19.8491,2939663
19.8538,2973863
19.8586,2915070
19.8633,2857831
19.8681,2904905
19.8729,3044274
19.8776,2922220
19.8824,2981692
19.8871,2910630
19.8919,2990513
19.8967,2984351
19.9014,2936296
19.9062,3010016
19.911,3050272
19.9157,3005847
19.9205,3004455
19.9252,2922028
19.93,2985639
19.9348,2966061
19.9395,2985392
19.9443,2898319
19.9491,2954257
19.9538,2903252
19.9586,2935377
19.9633,2910305
19.9681,2867321
19.9729,2951611
19.9776,3047874
19.9824,3065419
19.9872,3086862
19.9919,3154033
19.9967,3291708
20.0014,3409613
20.0062,3596410
20.011,3735075
20.0157,3819193
20.0205,3774379
20.0252,3620496
20.03,3461210
20.0348,3261943
20.0395,3134279
20.0443,3071906
20.0491,3010518
20.0538,3016936
20.0586,2971886
20.0633,2967511
20.0681,2940596
20.0729,2960216
20.0776,2991168
20.0824,2948703
20.0872,2936011
20.0919,2969532
20.0967,2915199
20.1014,2888704
20.1062,2964646
20.111,2887680
20.1157,2904803
20.1205,2901799
20.1252,2930010
20.13,2998131
20.1348,2961228
20.1395,2920508
20.1443,2867698
20.1491,2934323
20.1538,2911164
20.1586,2930200
20.1633,2924043
20.1681,2920965
20.1729,2885209
20.1776,2926318
20.1824,3022459
20.1872,2932249
20.1919,2977266
20.1967,3109432
20.2014,3068542
20.2062,3091829
20.211,3061213
20.2157,3036708
20.2205,3042356
20.2252,2960849
20.23,2955383
20.2348,2971462
20.2395,2976209
20.2443,2938044
20.2491,2931994
20.2538,2897005
20.2586,2957690
20.2633,2895531
20.2681,2889606
20.2729,2956159
20.2776,2951763
20.2824,2989621
20.2872,2880913
20.2919,2997940
20.2967,2915418
20.3014,2939557
20.3062,2925929
20.311,2920817
20.3157,2859782
20.3205,3022085
20.3253,2882971
20.33,2875756
20.3348,2928178
20.3395,2905719
20.3443,2915212
20.3491,2882985
20.3538,2917758
20.3586,2929176
20.3633,2926925
20.3681,2918922
20.3729,2913364
20.3776,2899554
20.3824,2923668
20.3872,2936727
20.3919,2887597
20.3967,2911926
20.4014,2980575
20.4062,2910823
20.411,2942219
20.4157,2915360
20.4205,2940268
20.4253,2932945
20.43,2846241
20.4348,2916396
20.4395,2919501
20.4443,2896002
20.4491,2917303
20.4538,2939100
20.4586,2882647
20.4633,2843946
20.4681,2891793
20.4729,2897878
20.4776,2905556
20.4824,2913537
20.4872,2884149
20.4919,2881855
20.4967,2849971
20.5014,2865594
20.5062,2941540
20.511,2900984
20.5157,2960773
20.5205,2946120
20.5253,2982600
20.53,2870410
20.5348,2878351
20.5395,2876115
20.5443,2893489
20.5491,2854380
20.5538,2904850
20.5586,2911840
20.5633,2854566
20.5681,2956773
20.5729,2919623
20.5776,2848315
20.5824,2864124
20.5872,2851746
20.5919,2876442
20.5967,2941682
20.6014,2887617
20.6062,2851595
20.611,2880454
20.6157,2869191
20.6205,2851569
20.6253,2886848
20.63,2953629
20.6348,2893255
20.6395,2821519
20.6443,2853516
20.6491,2897827
20.6538,2816784
20.6586,2846901
20.6634,2939114
20.6681,2938145
20.6729,2881542
20.6776,2852543
20.6824,2852376
20.6872,2916820
20.6919,2979913
20.6967,3031919
20.7014,3024784
20.7062,3054636
20.711,3064744
20.7157,3063230
20.7205,2999039
20.7253,3066211
20.73,3059993
20.7348,2983524
20.7395,2950966
20.7443,2979460
20.7491,2863809
20.7538,2865075
20.7586,2936175
20.7634,2970606
20.7681,2845433
20.7729,2864798
20.7776,2777706
20.7824,2855366
20.7872,2856261
20.7919,2933119
20.7967,2861844
20.8014,2865883
20.8062,2911034
20.811,2960895
20.8157,2894284
20.8205,2931291
20.8253,2962750
20.83,2906351
20.8348,2898234
20.8395,2892445
20.8443,2871044
20.8491,2887823
20.8538,2909266
20.8586,2874048
20.8634,2893233
20.8681,2809664
20.8729,2860018
20.8776,2909525
20.8824,2864231
20.8872,2851460
20.8919,2861409
20.8967,2798597
20.9014,2859429
20.9062,2838230
20.911,2848117
20.9157,2904540
20.9205,2789961
20.9253,2860704
20.93,2934215
20.9348,2851455
20.9395,2871669
20.9443,2873066
20.9491,2876697
20.9538,2783004
20.9586,2901928
20.9634,2923009
20.9681,2921716
20.9729,2914435
20.9776,2878118
20.9824,2897098
20.9872,2870828
20.9919,2860528
20.9967,2875258
21.0015,2937772
21.0062,2871228
21.011,2834850
21.0157,2836314
21.0205,2924096
21.0253,2935302
21.03,2956817
21.0348,2968453
21.0395,3060762
21.0443,3131698
21.0491,3071610
21.0538,3069573
21.0586,3035845
21.0634,3012271
21.0681,3035849
21.0729,2966153
21.0776,2929013
21.0824,2906122
21.0872,2894543
21.0919,2902864
21.0967,2894685
21.1015,2912975
21.1062,2833310
21.111,2922671
21.1157,2872955
21.1205,2900400
21.1253,2887851
21.13,2817970
21.1348,2911905
21.1395,2872065
21.1443,2901313
21.1491,2818013
21.1538,2903754
21.1586,2895232
21.1634,2911573
21.1681,2795809
21.1729,2796477
21.1776,2853646
21.1824,2876346
21.1872,2898353
21.1919,2885245
21.1967,2834589
21.2015,2868901
21.2062,2933581
21.211,2886891
21.2157,2865050
21.2205,2814278
21.2253,2891426
21.23,2832059
21.2348,2840777
21.2395,2801552
21.2443,2852502
21.2491,2834618
21.2538,2808681
21.2586,2785128
21.2634,2930843
21.2681,2834617
21.2729,2839435
21.2776,2859655
21.2824,2830327
21.2872,2801995
21.2919,2863365
21.2967,2862730
21.3015,2761600
21.3062,2862433
21.311,2800291
21.3157,2840612
21.3205,2815208
21.3253,2815143
21.33,2827895
21.3348,2835971
21.3396,2816432
21.3443,2888134
21.3491,2893939
21.3538,2806618
21.3586,2832106
21.3634,2882823
21.3681,2800847
21.3729,2886595
21.3776,2822491
21.3824,2838609
21.3872,2883566
21.3919,2834447
21.3967,2876779
21.4015,2874577
21.4062,2888111
21.411,2886273
21.4157,2886622
21.4205,2846340
21.4253,2874858
21.43,2903677
21.4348,2788052
21.4396,2839052
21.4443,2881402
21.4491,2822703
21.4538,2843135
21.4586,2851420
21.4634,2825249
21.4681,2863099
21.4729,2834214
21.4776,2899777
21.4824,2819852
21.4872,2842059
21.4919,2889335
