D:\DATA\HAMBERGER\NICK\20230701\20230701_6-7-23_NBenthi_01.D  2 Jul 23   3:42 am
Start of data points
4.09165,2775167
4.09642,2914242
4.10118,2899851
4.10593,2766207
4.1107,2942908
4.11547,2744404
4.12023,2952977
4.12498,3197599
4.12975,3083309
4.13452,2777354
4.13927,2796177
4.14403,2894493
4.1488,2540803
4.15357,2422840
4.15832,2472549
4.16308,2413039
4.16785,2377097
4.1726,2440864
4.17737,2348516
4.18213,2391915
4.1869,2389471
4.19165,2352029
4.19642,2355725
4.20118,2260464
4.20595,2267457
4.2107,2252909
4.21547,2160759
4.22023,2061181
4.22498,2037303
4.22975,2067897
4.23452,2085268
4.23928,2279184
4.24403,2203703
4.2488,2146584
4.25357,2127732
4.25832,2100200
4.26308,2103626
4.26785,1955109
4.27262,1997232
4.27737,2032239
4.28213,2397836
4.2869,3185141
4.29165,3051312
4.29642,2351102
4.30118,1974061
4.30595,1826109
4.3107,1848130
4.31547,1948166
4.32023,1833249
4.32498,1901909
4.32975,1979605
4.33452,2256771
4.33928,2097884
4.34403,1887495
4.3488,1829636
4.35357,1915980
4.35833,2274541
4.36308,2440916
4.36785,2377912
4.37262,2176510
4.37737,2158598
4.38213,2125614
4.3869,1996493
4.39167,2211632
4.39642,2440626
4.40118,2125756
4.40595,1898476
4.4107,1901011
4.41547,1940830
4.42023,1909125
4.425,1909222
4.42975,1894509
4.43452,1830228
4.43928,1893387
4.44403,1806658
4.4488,1702700
4.45357,1718871
4.45833,1698728
4.46308,1678996
4.46785,1672859
4.47262,1645290
4.47737,1688811
4.48213,1679442
4.4869,1690958
4.49167,1649934
4.49642,1689334
4.50118,1712966
4.50595,1715164
4.5107,1701534
4.51547,1695303
4.52023,1909710
4.525,2139999
4.52975,1903282
4.53452,1734443
4.53928,1692976
4.54405,1815568
4.5488,1829677
4.55357,1811693
4.55833,1759174
4.56308,1740050
4.56785,1895727
4.57262,2314429
4.57738,3208667
4.58213,3730445
4.5869,4708669
4.59167,5355233
4.59642,3860575
4.60118,2323046
4.60595,1941572
4.61072,1843734
4.61547,1811569
4.62023,1764020
4.625,1649456
4.62975,1575912
4.63452,1599566
4.63928,1574425
4.64405,1607493
4.6488,1532246
4.65357,1704102
4.65833,1696266
4.66308,1604787
4.66785,1550093
4.67262,1682918
4.67738,1673068
4.68213,1606260
4.6869,1588685
4.69167,1506549
4.69643,1540099
4.70118,1557568
4.70595,1556421
4.71072,1509111
4.71547,1561369
4.72023,1553006
4.725,1557576
4.72977,1486888
4.73452,1530248
4.73928,1508916
4.74405,1481910
4.7488,1482373
4.75357,1473286
4.75833,1484465
4.7631,1511328
4.76785,1431120
4.77262,1437877
4.77738,1446168
4.78213,1465563
4.7869,1530987
4.79167,1530910
4.79643,1609817
4.80118,1614322
4.80595,1556767
4.81072,1585690
4.81547,1551531
4.82023,1680516
4.825,1668001
4.82977,1675966
4.83452,1673005
4.83928,1584622
4.84405,1589897
4.8488,1617086
4.85357,1590939
4.85833,1594152
4.8631,1555247
4.86785,1550261
4.87262,1585842
4.87738,1603478
4.88215,1548760
4.8869,1506564
4.89167,1525841
4.89643,1510935
4.90118,1469215
4.90595,1557766
4.91072,1526850
4.91548,1538895
4.92023,1563433
4.925,1478891
4.92977,1517148
4.93452,1498160
4.93928,1510288
4.94405,1483151
4.94882,1470834
4.95357,1437555
4.95833,1428368
4.9631,1374008
4.96785,1322162
4.97262,1337435
4.97738,1365612
4.98215,1369473
4.9869,1501662
4.99167,1279926
4.99643,1375321
5.00118,1342223
5.00595,1338935
5.01072,1313548
5.01548,1326614
5.02023,1287082
5.025,1301490
5.02977,1366043
5.03452,1346226
5.03928,1325424
5.04405,1333953
5.04882,1276690
5.05357,1316573
5.05833,1328183
5.0631,1361444
5.06787,1300319
5.07262,1306314
5.07738,1272486
5.08215,1218538
5.0869,1265465
5.09167,1264432
5.09643,1244894
5.1012,1235755
5.10595,1249997
5.11072,1235540
5.11548,1252294
5.12023,1236534
5.125,1255237
5.12977,1298038
5.13453,1303921
5.13928,1307477
5.14405,1399045
5.14882,1294798
5.15357,1381009
5.15833,1354702
5.1631,1406102
5.16787,1396879
5.17262,1384753
5.17738,1428550
5.18215,1400294
5.1869,1391581
5.19167,1388975
5.19643,1385536
5.2012,1394288
5.20595,1372536
5.21072,1364701
5.21548,1433022
5.22025,1388328
5.225,1435742
5.22977,1536789
5.23453,1610719
5.23928,1593701
5.24405,1476097
5.24882,1418350
5.25358,1481376
5.25833,1957180
5.2631,3114206
5.26787,3571348
5.27262,2955044
5.27738,2273538
5.28215,1896954
5.28692,1670298
5.29167,1566932
5.29643,1532653
5.3012,1459695
5.30595,1418032
5.31072,1387117
5.31548,1372919
5.32025,1335538
5.325,1403551
5.32977,1392785
5.33453,1403467
5.33928,1422460
5.34405,1381072
5.34882,1342235
5.35358,1382412
5.35833,1334309
5.3631,1330708
5.36787,1337577
5.37262,1314561
5.37738,1363628
5.38215,1310421
5.38692,1333484
5.39167,1314387
5.39643,1328256
5.4012,1330411
5.40597,1374079
5.41072,1352920
5.41548,1393959
5.42025,1422525
5.425,1470601
5.42977,1512631
5.43453,1524160
5.4393,1517719
5.44405,1495610
5.44882,1360443
5.45358,1340413
5.45833,1332295
5.4631,1369879
5.46787,1394532
5.47263,1407944
5.47738,1335118
5.48215,1341080
5.48692,1361850
5.49167,1318030
5.49643,1317206
5.5012,1354485
5.50597,1368774
5.51072,1415014
5.51548,1448849
5.52025,1346219
5.525,1291851
5.52977,1324504
5.53453,1254849
5.5393,1284363
5.54405,1307830
5.54882,1451358
5.55358,1423046
5.55835,1239374
5.5631,1263714
5.56787,1258292
5.57263,1203703
5.57738,1252543
5.58215,1269660
5.58692,1224409
5.59168,1239768
5.59643,1226768
5.6012,1194228
5.60597,1252415
5.61072,1246918
5.61548,1237269
5.62025,1256936
5.62502,1221994
5.62977,1272456
5.63453,1247126
5.6393,1225743
5.64405,1198158
5.64882,1279879
5.65358,1260030
5.65835,1208456
5.6631,1204099
5.66787,1243284
5.67263,1217468
5.67738,1243887
5.68215,1231582
5.68692,1246088
5.69168,1175205
5.69643,1226136
5.7012,1208963
5.70597,1236380
5.71072,1234839
5.71548,1201766
5.72025,1227479
5.72502,1220891
5.72977,1245616
5.73453,1287494
5.7393,1266392
5.74407,1270928
5.74882,1283161
5.75358,1266312
5.75835,1229331
5.7631,1264041
5.76787,1301404
5.77263,1280574
5.7774,1279966
5.78215,1277271
5.78692,1272726
5.79168,1298261
5.79643,1352413
5.8012,1300652
5.80597,1248670
5.81073,1254157
5.81548,1243985
5.82025,1216639
5.82502,1220732
5.82977,1175067
5.83453,1212274
5.8393,1226715
5.84407,1172483
5.84882,1154475
5.85358,1172245
5.85835,1149393
5.8631,1174086
5.86787,1195632
5.87263,1174858
5.8774,1148510
5.88215,1202391
5.88692,1214615
5.89168,1253956
5.89643,1347333
5.9012,1488826
5.90597,1538902
5.91073,1472863
5.91548,1493828
5.92025,1513261
5.92502,1503429
5.92978,1411774
5.93453,1521279
5.9393,1423666
5.94407,1479841
5.94882,1438271
5.95358,1487692
5.95835,1698286
5.96312,2144663
5.96787,2377014
5.97263,2114698
5.9774,1784773
5.98215,1597632
5.98692,1537050
5.99168,1423874
5.99645,1420195
6.0012,1368127
6.00597,1405380
6.01073,1338226
6.01548,1316298
6.02025,1360337
6.02502,1325685
6.02978,1313678
6.03453,1301670
6.0393,1278696
6.04407,1261531
6.04882,1308469
6.05358,1220503
6.05835,1219313
6.06312,1246945
6.06787,1257338
6.07263,1275103
6.0774,1283401
6.08217,1226480
6.08692,1283253
6.09168,1377048
6.09645,1255968
6.1012,1227762
6.10597,1202153
6.11073,1172601
6.1155,1177349
6.12025,1209731
6.12502,1227604
6.12978,1205870
6.13453,1158214
6.1393,1189002
6.14407,1206465
6.14883,1162219
6.15358,1177857
6.15835,1207764
6.16312,1142776
6.16787,1201690
6.17263,1245519
6.1774,1262295
6.18217,1333343
6.18692,1271064
6.19168,1221909
6.19645,1228094
6.2012,1148590
6.20597,1185152
6.21073,1163523
6.2155,1153403
6.22025,1126305
6.22502,1167605
6.22978,1166926
6.23453,1189314
6.2393,1128943
6.24407,1140014
6.24883,1132403
6.25358,1128729
6.25835,1145054
6.26312,1129628
6.26788,1120790
6.27263,1103005
6.2774,1128910
6.28217,1093569
6.28692,1102798
6.29168,1091188
6.29645,1106488
6.30122,1111105
6.30597,1173443
6.31073,1193602
6.3155,1203471
6.32025,1186498
6.32502,1163787
6.32978,1163173
6.33455,1122216
6.3393,1133902
6.34407,1117904
6.34883,1135038
6.35358,1149618
6.35835,1069366
6.36312,1073972
6.36788,1054836
6.37263,1063912
6.3774,1069922
6.38217,1058925
6.38692,1036894
6.39168,1056739
6.39645,1022956
6.40122,1045337
6.40597,1134595
6.41073,1113030
6.4155,1179847
6.42027,1259364
6.42502,1219951
6.42978,1177282
6.43455,1093618
6.4393,1102638
6.44407,1071452
6.44883,1088872
6.4536,1026988
6.45835,1029081
6.46312,1046824
6.46788,1031099
6.47263,1062802
6.4774,1041203
6.48217,1039668
6.48693,1025047
6.49168,1012098
6.49645,963172
6.50122,1019248
6.50597,1012755
6.51073,1055720
6.5155,966114
6.52027,1008939
6.52502,1036932
6.52978,1041129
6.53455,1051104
6.5393,1035265
6.54407,1038303
6.54883,993648
6.5536,998158
6.55835,989234
6.56312,1012367
6.56788,989044
6.57263,1004970
6.5774,996921
6.58217,991086
6.58693,953222
6.59168,971430
6.59645,965049
6.60122,976444
6.60598,948415
6.61073,959330
6.6155,941479
6.62027,974895
6.62502,966136
6.62978,997868
6.63455,999575
6.63932,963989
6.64407,1026845
6.64883,1014658
6.6536,982716
6.65835,1039985
6.66312,1005404
6.66788,998716
6.67265,999183
6.6774,958221
6.68217,963850
6.68693,933204
6.69168,925925
6.69645,914809
6.70122,965634
6.70598,920867
6.71073,1002505
6.7155,979725
6.72027,955108
6.72502,960212
6.72978,886138
6.73455,942205
6.73932,964647
6.74407,931206
6.74883,909220
6.7536,913041
6.75835,944068
6.76312,956728
6.76788,941718
6.77265,972059
6.7774,957232
6.78217,965715
6.78693,993406
6.7917,1012209
6.79645,939183
6.80122,979302
6.80598,1003486
6.81073,987723
6.8155,926806
6.82027,984402
6.82503,940971
6.82978,989079
6.83455,1048355
6.83932,1140578
6.84407,1220366
6.84883,1221019
6.8536,1180859
6.85837,1070357
6.86312,989715
6.86788,978897
6.87265,947909
6.8774,961044
6.88217,931120
6.88693,933682
6.8917,883003
6.89645,923013
6.90122,936974
6.90598,885208
6.91073,857992
6.9155,906540
6.92027,911903
6.92503,900818
6.92978,908866
6.93455,901581
6.93932,916854
6.94408,938311
6.94883,873460
6.9536,893632
6.95837,887444
6.96312,865538
6.96788,891317
6.97265,888216
6.97742,869327
6.98217,857316
6.98693,885424
6.9917,838320
6.99645,881644
7.00122,822012
7.00598,837157
7.01075,856135
7.0155,818665
7.02027,862067
7.02503,886098
7.02978,854567
7.03455,838242
7.03932,819512
7.04408,820166
7.04883,781199
7.0536,837528
7.05837,792167
7.06312,822524
7.06788,809383
7.07265,857808
7.07742,859540
7.08217,796152
7.08693,812878
7.0917,794189
7.09645,794789
7.10122,810081
7.10598,827576
7.11075,779695
7.1155,780939
7.12027,788416
7.12503,816192
7.1298,791200
7.13455,785036
7.13932,782077
7.14408,780094
7.14883,763228
7.1536,774591
7.15837,789389
7.16313,755427
7.16788,743647
7.17265,779207
7.17742,762339
7.18217,791691
7.18693,796635
7.1917,801255
7.19647,771133
7.20122,774029
7.20598,783131
7.21075,768349
7.2155,769695
7.22027,744705
7.22503,761834
7.2298,787662
7.23455,807775
7.23932,741198
7.24408,746787
7.24883,738828
7.2536,775697
7.25837,773569
7.26313,737077
7.26788,735562
7.27265,748715
7.27742,734374
7.28218,718119
7.28693,738172
7.2917,753741
7.29647,763595
7.30122,733215
7.30598,771424
7.31075,760889
7.31552,724572
7.32027,733178
7.32503,728299
7.3298,759918
7.33455,700089
7.33932,718083
7.34408,702825
7.34885,724994
7.3536,727172
7.35837,705143
7.36313,701083
7.36788,685271
7.37265,744547
7.37742,690742
7.38218,723484
7.38693,728450
7.3917,789053
7.39647,775244
7.40122,720402
7.40598,712829
7.41075,706435
7.41552,714047
7.42027,722745
7.42503,729261
7.4298,668974
7.43455,723294
7.43932,710784
7.44408,725892
7.44885,703786
7.4536,731870
7.45837,710938
7.46313,732985
7.4679,658245
7.47265,727044
7.47742,723407
7.48218,746918
7.48693,711337
7.4917,704422
7.49647,697609
7.50123,694499
7.50598,680009
7.51075,727656
7.51552,679949
7.52027,661287
7.52503,719639
7.5298,706845
7.53457,718233
7.53932,727358
7.54408,774677
7.54885,773108
7.5536,752634
7.55837,796307
7.56313,711819
7.5679,717394
7.57265,729127
7.57742,707830
7.58218,726249
7.58693,686498
7.5917,718235
7.59647,686315
7.60123,658278
7.60598,705597
7.61075,702081
7.61552,712529
7.62027,662864
7.62503,692465
7.6298,674501
7.63457,655055
7.63932,669759
7.64408,680689
7.64885,676633
7.65362,679984
7.65837,690795
7.66313,662557
7.6679,659961
7.67265,686594
7.67742,669454
7.68218,642875
7.68695,642339
7.6917,634115
7.69647,616882
7.70123,639929
7.70598,651742
7.71075,645819
7.71552,646759
7.72028,691986
7.72503,658012
7.7298,649875
7.73457,669760
7.73932,661231
7.74408,654523
7.74885,709425
7.75362,579746
7.75837,639349
7.76313,623924
7.7679,628987
7.77265,609678
7.77742,646831
7.78218,667199
7.78695,681054
7.7917,695087
7.79647,701709
7.80123,698537
7.806,700901
7.81075,631042
7.81552,632731
7.82028,640510
7.82503,658217
7.8298,636240
7.83457,622759
7.83933,643799
7.84408,651686
7.84885,629255
7.85362,620225
7.85837,642031
7.86313,624499
7.8679,610677
7.87267,617040
7.87742,654097
7.88218,669438
7.88695,627818
7.8917,596728
7.89647,614869
7.90123,651693
7.906,623850
7.91075,583014
7.91552,646582
7.92028,641100
7.92503,673956
7.9298,667204
7.93457,748964
7.93933,753618
7.94408,736445
7.94885,707530
7.95362,675623
7.95837,661591
7.96313,618040
7.9679,690868
7.97267,623627
7.97742,635443
7.98218,644852
7.98695,623766
7.99172,619213
7.99647,627188
8.00123,638812
8.006,604198
8.01075,613714
8.01552,630446
8.02028,649287
8.02505,647077
8.0298,625934
8.03457,630268
8.03933,661606
8.04408,607672
8.04885,458318
8.05362,614918
8.05838,614543
8.06313,629644
8.0679,607496
8.07267,650672
8.07742,660207
8.08218,678239
8.08695,685100
8.09172,700459
8.09647,701397
8.10123,660630
8.106,639802
8.11075,632468
8.11552,634181
8.12028,647902
8.12505,614322
8.1298,621397
8.13457,646878
8.13933,638002
8.1441,640099
8.14885,606114
8.15362,644510
8.15838,608482
8.16313,615318
8.1679,577107
8.17267,596988
8.17743,601018
8.18218,578454
8.18695,593443
8.19172,620097
8.19647,583040
8.20123,587534
8.206,587153
8.21077,589744
8.21552,599931
8.22028,630736
8.22505,627832
8.2298,588024
8.23457,574674
8.23933,614888
8.2441,589020
8.24885,585460
8.25362,576322
8.25838,591929
8.26313,571834
8.2679,614601
8.27267,561035
8.27743,549041
8.28218,586223
8.28695,559591
8.29172,557315
8.29647,575807
8.30123,556184
8.306,576854
8.31077,576345
8.31552,576193
8.32028,584539
8.32505,563693
8.32982,543717
8.33457,545753
8.33933,554818
8.3441,581165
8.34885,562996
8.35362,543829
8.35838,540100
8.36315,554524
8.3679,560481
8.37267,539637
8.37743,574816
8.38218,568756
8.38695,571352
8.39172,539196
8.39648,524930
8.40123,551887
8.406,539525
8.41077,554715
8.41552,554398
8.42028,567281
8.42505,533201
8.42982,543173
8.43457,552469
8.43933,541208
8.4441,532294
8.44885,565453
8.45362,526665
8.45838,542423
8.46315,557799
8.4679,583630
8.47267,516558
8.47743,513949
8.4822,574443
8.48695,536036
8.49172,542719
8.49648,554920
8.50123,544430
8.506,548947
8.51077,534976
8.51553,526991
8.52028,536528
8.52505,543747
8.52982,525628
8.53457,515172
8.53933,541580
8.5441,532797
8.54887,502022
8.55362,544650
8.55838,526065
8.56315,543326
8.5679,546512
8.57267,539070
8.57743,503446
8.5822,534039
8.58695,520874
8.59172,551104
8.59648,536497
8.60123,562228
8.606,539983
8.61077,557177
8.61553,498883
8.62028,518575
8.62505,545154
8.62982,513779
8.63457,555126
8.63933,555694
8.6441,571309
8.64887,560547
8.65362,547814
8.65838,568604
8.66315,537442
8.66792,518540
8.67267,543306
8.67743,552814
8.6822,527364
8.68695,512768
8.69172,542456
8.69648,528000
8.70125,536402
8.706,517457
8.71077,537515
8.71553,520808
8.72028,504019
8.72505,519377
8.72982,515560
8.73458,531879
8.73933,516205
8.7441,550383
8.74887,508857
8.75362,508058
8.75838,504342
8.76315,493181
8.76792,485259
8.77267,527350
8.77743,496194
8.7822,519418
8.78695,504424
8.79172,499543
8.79648,499814
8.80125,491555
8.806,497941
8.81077,497766
8.81553,493884
8.82028,504805
8.82505,498858
8.82982,493559
8.83458,519483
8.83933,528156
8.8441,513338
8.84887,493523
8.85363,507376
8.85838,525921
8.86315,525714
8.86792,496884
8.87267,508464
8.87743,522534
8.8822,536859
8.88697,506443
8.89172,506782
8.89648,503617
8.90125,512868
8.906,519054
8.91077,502282
8.91553,521832
8.9203,520209
8.92505,489964
8.92982,486151
8.93458,510694
8.93933,497388
8.9441,497745
8.94887,482198
8.95363,495377
8.95838,521473
8.96315,501649
8.96792,484092
8.97267,475156
8.97743,501447
8.9822,492543
8.98697,525445
8.99172,521208
8.99648,575938
9.00125,586646
9.00602,606257
9.01077,592472
9.01553,614349
9.0203,570066
9.02505,579584
9.02982,548600
9.03458,510804
9.03935,513979
9.0441,473985
9.04887,474404
9.05363,486346
9.05838,495573
9.06315,523595
9.06792,481497
9.07268,475321
9.07743,494881
9.0822,492319
9.08697,477219
9.09172,453499
9.09648,483107
9.10125,498566
9.10602,463743
9.11077,488071
9.11553,489564
9.1203,499495
9.12505,517509
9.12982,538010
9.13458,544251
9.13935,566725
9.1441,562659
9.14887,557483
9.15363,520647
9.15838,531249
9.16315,528336
9.16792,497792
9.17268,482513
9.17743,501300
9.1822,494273
9.18697,474692
9.19173,477744
9.19648,471250
9.20125,463055
9.20602,470268
9.21077,473959
9.21553,478197
9.2203,480984
9.22507,457399
9.22982,463575
9.23458,451647
9.23935,474098
9.2441,496307
9.24887,466443
9.25363,455864
9.2584,489722
9.26315,483636
9.26792,486033
9.27268,477714
9.27743,515682
9.2822,472662
9.28697,475590
9.29173,470910
9.29648,462110
9.30125,477960
9.30602,466759
9.31077,442102
9.31553,466033
9.3203,480395
9.32507,486323
9.32982,466867
9.33458,488970
9.33935,490570
9.34412,512354
9.34887,511737
9.35363,493752
9.3584,474826
9.36315,480742
9.36792,483197
9.37268,471672
9.37745,449013
9.3822,466966
9.38697,462864
9.39173,474293
9.39648,451751
9.40125,448382
9.40602,423988
9.41078,454112
9.41553,449515
9.4203,458409
9.42507,460488
9.42982,433165
9.43458,439496
9.43935,462403
9.44412,458594
9.44887,483488
9.45363,429833
9.4584,471790
9.46315,452305
9.46792,476323
9.47268,469054
9.47745,498806
9.4822,450994
9.48697,447797
9.49173,436145
9.49648,428939
9.50125,466308
9.50602,476287
9.51078,457523
9.51553,424932
9.5203,431184
9.52507,442730
9.52983,442115
9.53458,448133
9.53935,435408
9.54412,439825
9.54887,459827
9.55363,465477
9.5584,483113
9.56317,452086
9.56792,452755
9.57268,460961
9.57745,454529
9.5822,473134
9.58697,480290
9.59173,462373
9.5965,457499
9.60125,468049
9.60602,443155
9.61078,472733
9.61553,485615
9.6203,495148
9.62507,501961
9.62983,510251
9.63458,491973
9.63935,477018
9.64412,477695
9.64887,483071
9.65363,446450
9.6584,455055
9.66317,446213
9.66792,438619
9.67268,452967
9.67745,462567
9.6822,434108
9.68697,448114
9.69173,429939
9.6965,467015
9.70125,440987
9.70602,428337
9.71078,457822
9.71555,435337
9.7203,438010
9.72507,430796
9.72983,450766
9.73458,431928
9.73935,437750
9.74412,462244
9.74888,448536
9.75363,452215
9.7584,425378
9.76317,457719
9.76792,425563
9.77268,444018
9.77745,443261
9.78222,420173
9.78697,449932
9.79173,420730
9.7965,445786
9.80125,453636
9.80602,460519
9.81078,419485
9.81555,418731
9.8203,452125
9.82507,427703
9.82983,424080
9.83458,455389
9.83935,470881
9.84412,435392
9.84888,446185
9.85363,430758
9.8584,432677
9.86317,441968
9.86793,417381
9.87268,424524
9.87745,450959
9.88222,436792
9.88697,405735
9.89173,417319
9.8965,470167
9.90127,421294
9.90602,437277
9.91078,434486
9.91555,417121
9.9203,413914
9.92507,415345
9.92983,465104
9.9346,461075
9.93935,430425
9.94412,429271
9.94888,451656
9.95363,479882
9.9584,480035
9.96317,493345
9.96793,482790
9.97268,554980
9.97745,517894
9.98222,550595
9.98697,526845
9.99173,562975
9.9965,554615
10.0013,512362
10.006,500218
10.0108,475614
10.0156,456124
10.0203,497673
10.0251,487980
10.0298,466391
10.0346,457681
10.0394,435488
10.0441,460729
10.0489,451347
10.0537,446694
10.0584,481409
10.0632,451618
10.0679,439495
10.0727,454823
10.0775,460646
10.0822,461926
10.087,518386
10.0917,639539
10.0965,848320
10.1013,1132282
10.106,1419598
10.1108,1702876
10.1156,1989126
10.1203,2069468
10.1251,1943702
10.1298,1624145
10.1346,1333463
10.1394,1068198
10.1441,875112
10.1489,775076
10.1537,725859
10.1584,711885
10.1632,660240
10.1679,627615
10.1727,647871
10.1775,612815
10.1822,594688
10.187,580568
10.1917,560316
10.1965,530555
10.2013,538272
10.206,550439
10.2108,545651
10.2156,552745
10.2203,532464
10.2251,532169
10.2298,555037
10.2346,531837
10.2394,520328
10.2441,550970
10.2489,563375
10.2537,532139
10.2584,548440
10.2632,558363
10.2679,527681
10.2727,543547
10.2775,528829
10.2822,527945
10.287,512664
10.2917,509240
10.2965,530505
10.3013,511561
10.306,515253
10.3108,524353
10.3156,523356
10.3203,525305
10.3251,524860
10.3298,527026
10.3346,531092
10.3394,491366
10.3441,494048
10.3489,492152
10.3537,487461
10.3584,473927
10.3632,483258
10.3679,488062
10.3727,509002
10.3775,481443
10.3822,500857
10.387,507456
10.3918,471878
10.3965,479952
10.4013,463503
10.406,453509
10.4108,488194
10.4156,429342
10.4203,489883
10.4251,462992
10.4298,479074
10.4346,472387
10.4394,460685
10.4441,449877
10.4489,478651
10.4537,468261
10.4584,453968
10.4632,468592
10.4679,464730
10.4727,473698
10.4775,486684
10.4822,467510
10.487,473890
10.4918,509440
10.4965,532345
10.5013,536129
10.506,592625
10.5108,571400
10.5156,630578
10.5203,595763
10.5251,593053
10.5298,537162
10.5346,519480
10.5394,520238
10.5441,531652
10.5489,515028
10.5537,482462
10.5584,515109
10.5632,506709
10.5679,474625
10.5727,488901
10.5775,504994
10.5822,491706
10.587,483747
10.5918,502727
10.5965,503838
10.6013,487380
10.606,521522
10.6108,495972
10.6156,450684
10.6203,482919
10.6251,489100
10.6298,502962
10.6346,471406
10.6394,490000
10.6441,486075
10.6489,493207
10.6537,500557
10.6584,478777
10.6632,487522
10.6679,486795
10.6727,511167
10.6775,529837
10.6822,585261
10.687,642230
10.6918,822172
10.6965,942202
10.7013,1066681
10.706,1136910
10.7108,1051644
10.7156,935421
10.7203,805045
10.7251,695047
10.7299,635849
10.7346,622820
10.7394,610769
10.7441,577622
10.7489,565046
10.7537,544046
10.7584,539649
10.7632,567185
10.7679,572218
10.7727,566913
10.7775,556607
10.7822,563210
10.787,590117
10.7918,579267
10.7965,580536
10.8013,558473
10.806,536478
10.8108,536866
10.8156,542865
10.8203,536299
10.8251,495429
10.8299,563907
10.8346,515034
10.8394,524484
10.8441,525466
10.8489,524250
10.8537,482294
10.8584,535817
10.8632,499251
10.8679,509764
10.8727,546403
10.8775,538612
10.8822,541936
10.887,510319
10.8918,483254
10.8965,500368
10.9013,501494
10.906,523818
10.9108,528523
10.9156,501704
10.9203,538039
10.9251,543690
10.9299,557510
10.9346,580971
10.9394,576342
10.9441,546957
10.9489,588821
10.9537,589382
10.9584,602558
10.9632,607146
10.9679,628422
10.9727,638670
10.9775,608114
10.9822,668185
10.987,648544
10.9918,647584
10.9965,641195
11.0013,618453
11.006,642179
11.0108,752971
11.0156,858858
11.0203,987072
11.0251,1027523
11.0299,987792
11.0346,872172
11.0394,797036
11.0441,740100
11.0489,676979
11.0537,633825
11.0584,641309
11.0632,624658
11.068,625316
11.0727,582341
11.0775,583626
11.0822,555180
11.087,540789
11.0918,555684
11.0965,534291
11.1013,562333
11.106,549439
11.1108,545036
11.1156,565430
11.1203,545567
11.1251,547667
11.1299,570817
11.1346,542300
11.1394,533018
11.1441,502882
11.1489,542464
11.1537,548952
11.1584,525593
11.1632,537276
11.168,537108
11.1727,536997
11.1775,563335
11.1822,529629
11.187,543523
11.1918,536847
11.1965,550861
11.2013,530436
11.206,544552
11.2108,517941
11.2156,536215
11.2203,569846
11.2251,540378
11.2299,544786
11.2346,520547
11.2394,560331
11.2441,537480
11.2489,564826
11.2537,576099
11.2584,589330
11.2632,585450
11.268,572461
11.2727,562933
11.2775,561505
11.2822,556508
11.287,553237
11.2918,544680
11.2965,544387
11.3013,499482
11.306,537254
11.3108,538980
11.3156,567319
11.3203,525855
11.3251,517793
11.3299,522478
11.3346,520375
11.3394,520247
11.3441,515341
11.3489,539357
11.3537,522442
11.3584,520436
11.3632,533325
11.368,530501
11.3727,562238
11.3775,539182
11.3822,562186
11.387,556462
11.3918,554577
11.3965,574272
11.4013,568939
11.4061,579254
11.4108,601984
11.4156,582810
11.4203,591259
11.4251,622891
11.4299,618465
11.4346,604135
11.4394,619060
11.4441,620888
11.4489,630302
11.4537,628635
11.4584,590015
11.4632,582530
11.468,581600
11.4727,618069
11.4775,607153
11.4822,644711
11.487,650611
11.4918,677131
11.4965,699543
11.5013,703820
11.5061,706886
11.5108,619069
11.5156,619652
11.5203,616129
11.5251,611362
11.5299,657606
11.5346,725036
11.5394,729835
11.5441,712940
11.5489,714719
11.5537,659810
11.5584,573075
11.5632,597676
11.568,560024
11.5727,542521
11.5775,574235
11.5822,581552
11.587,576717
11.5918,569037
11.5965,564799
11.6013,570795
11.6061,589317
11.6108,564961
11.6156,548598
11.6203,573411
11.6251,541698
11.6299,534110
11.6346,527809
11.6394,557362
11.6441,577534
11.6489,548401
11.6537,555933
11.6584,561695
11.6632,563697
11.668,577202
11.6727,565589
11.6775,552352
11.6822,550961
11.687,580655
11.6918,574791
11.6965,635015
11.7013,721910
11.7061,775733
11.7108,760062
11.7156,728642
11.7203,648356
11.7251,628602
11.7299,617723
11.7346,552111
11.7394,561112
11.7441,570295
11.7489,539604
11.7537,543197
11.7584,575242
11.7632,557785
11.768,549740
11.7727,547820
11.7775,551748
11.7822,560944
11.787,562281
11.7918,546353
11.7965,562553
11.8013,567929
11.8061,549590
11.8108,589705
11.8156,592638
11.8203,547164
11.8251,593923
11.8299,562348
11.8346,562772
11.8394,559975
11.8442,560144
11.8489,568011
11.8537,559190
11.8584,536817
11.8632,563630
11.868,594856
11.8727,562014
11.8775,601960
11.8822,579933
11.887,587097
11.8918,585191
11.8965,569027
11.9013,577408
11.9061,604097
11.9108,583651
11.9156,567921
11.9203,575812
11.9251,539626
11.9299,578285
11.9346,553240
11.9394,541400
11.9442,533238
11.9489,573127
11.9537,583282
11.9584,571998
11.9632,585213
11.968,564690
11.9727,571923
11.9775,554892
11.9822,546611
11.987,597452
11.9918,558479
11.9965,584529
12.0013,558965
12.0061,569707
12.0108,584897
12.0156,581806
12.0203,612977
12.0251,572173
12.0299,603005
12.0346,604771
12.0394,576601
12.0442,562000
12.0489,635397
12.0537,591881
12.0584,645623
12.0632,623386
12.068,611587
12.0727,606217
12.0775,601871
12.0822,589455
12.087,594570
12.0918,589804
12.0965,581632
12.1013,590044
12.1061,588811
12.1108,580992
12.1156,624774
12.1203,621261
12.1251,642482
12.1299,594266
12.1346,588841
12.1394,621374
12.1442,635305
12.1489,606121
12.1537,610699
12.1584,602655
12.1632,604787
12.168,595583
12.1727,605033
12.1775,598668
12.1823,578523
12.187,575536
12.1918,569691
12.1965,599569
12.2013,566848
12.2061,589950
12.2108,608798
12.2156,570157
12.2203,592418
12.2251,574070
12.2299,563776
12.2346,580114
12.2394,557414
12.2442,563387
12.2489,559382
12.2537,552459
12.2584,540510
12.2632,570470
12.268,543286
12.2727,565239
12.2775,547017
12.2823,527090
12.287,557066
12.2918,563929
12.2965,579799
12.3013,557786
12.3061,565422
12.3108,610676
12.3156,659297
12.3203,689669
12.3251,736566
12.3299,732123
12.3346,676467
12.3394,648703
12.3442,615235
12.3489,588749
12.3537,584440
12.3584,599834
12.3632,618728
12.368,629079
12.3727,615601
12.3775,672921
12.3823,642924
12.387,637692
12.3918,643232
12.3965,576224
12.4013,622552
12.4061,614604
12.4108,656400
12.4156,659466
12.4203,643861
12.4251,628665
12.4299,596305
12.4346,616303
12.4394,606351
12.4442,592812
12.4489,608898
12.4537,606404
12.4584,597819
12.4632,619991
12.468,585926
12.4727,606823
12.4775,600888
12.4823,612052
12.487,629628
12.4918,662864
12.4965,640838
12.5013,668302
12.5061,609042
12.5108,602883
12.5156,593362
12.5204,602047
12.5251,567789
12.5299,603656
12.5346,609762
12.5394,611215
12.5442,601533
12.5489,618905
12.5537,610528
12.5584,632385
12.5632,602815
12.568,625641
12.5727,580908
12.5775,615455
12.5823,617357
12.587,629489
12.5918,645472
12.5965,649282
12.6013,591989
12.6061,602525
12.6108,597329
12.6156,601602
12.6204,617346
12.6251,608312
12.6299,606089
12.6346,618768
12.6394,601318
12.6442,623360
12.6489,598508
12.6537,603016
12.6584,597169
12.6632,591974
12.668,599190
12.6727,605529
12.6775,619923
12.6823,689101
12.687,705140
12.6918,783816
12.6965,773832
12.7013,746023
12.7061,692972
12.7108,643343
12.7156,621855
12.7204,660104
12.7251,646724
12.7299,623575
12.7346,586047
12.7394,627939
12.7442,638493
12.7489,656214
12.7537,629227
12.7584,621537
12.7632,647338
12.768,692233
12.7727,797284
12.7775,784090
12.7823,765262
12.787,754426
12.7918,755082
12.7965,693707
12.8013,639020
12.8061,666216
12.8108,661337
12.8156,650383
12.8204,630338
12.8251,641916
12.8299,661734
12.8346,645320
12.8394,609325
12.8442,628900
12.8489,632156
12.8537,625497
12.8585,651253
12.8632,648793
12.868,649631
12.8727,685043
12.8775,643488
12.8823,652913
12.887,642709
12.8918,631706
12.8965,670857
12.9013,634054
12.9061,647745
12.9108,644221
12.9156,638671
12.9204,654685
12.9251,634030
12.9299,639264
12.9346,659425
12.9394,625509
12.9442,619952
12.9489,667994
12.9537,646158
12.9585,639406
12.9632,608608
12.968,618466
12.9727,615621
12.9775,614268
12.9823,627011
12.987,672139
12.9918,730706
12.9965,914140
13.0013,1028444
13.0061,1190515
13.0108,1241780
13.0156,1148229
13.0204,1007602
13.0251,884556
13.0299,787707
13.0346,698232
13.0394,703641
13.0442,654413
13.0489,674210
13.0537,650363
13.0585,649619
13.0632,653362
13.068,614534
13.0727,670785
13.0775,654579
13.0823,678065
13.087,706222
13.0918,683300
13.0965,626428
13.1013,655705
13.1061,655929
13.1108,656290
13.1156,625570
13.1204,618256
13.1251,625641
13.1299,587247
13.1346,609378
13.1394,643593
13.1442,609929
13.1489,622045
13.1537,592062
13.1585,631008
13.1632,629538
13.168,631155
13.1727,633513
13.1775,642880
13.1823,645400
13.187,626443
13.1918,638827
13.1966,652954
13.2013,676196
13.2061,704601
13.2108,718836
13.2156,731913
13.2204,711755
13.2251,690474
13.2299,647317
13.2346,704668
13.2394,693748
13.2442,797832
13.2489,813208
13.2537,889770
13.2585,919330
13.2632,841119
13.268,777686
13.2727,729198
13.2775,677549
13.2823,651627
13.287,659861
13.2918,660622
13.2966,650795
13.3013,643025
13.3061,655663
13.3108,633962
13.3156,628134
13.3204,664107
13.3251,631907
13.3299,646762
13.3346,630506
13.3394,617600
13.3442,640706
13.3489,648944
13.3537,656021
13.3585,609410
13.3632,651740
13.368,645837
13.3727,642100
13.3775,641266
13.3823,670247
13.387,639713
13.3918,653647
13.3966,662578
13.4013,643797
13.4061,628550
13.4108,628363
13.4156,645287
13.4204,630609
13.4251,624114
13.4299,606954
13.4346,661928
13.4394,634448
13.4442,623913
13.4489,636301
13.4537,651843
13.4585,642881
13.4632,669011
13.468,616336
13.4727,663694
13.4775,627375
13.4823,644535
13.487,655422
13.4918,663061
13.4966,675532
13.5013,708976
13.5061,693959
13.5108,632149
13.5156,643494
13.5204,683737
13.5251,635073
13.5299,674923
13.5347,639794
13.5394,667772
13.5442,627935
13.5489,622789
13.5537,657220
13.5585,773682
13.5632,630320
13.568,628630
13.5727,640509
13.5775,679185
13.5823,647793
13.587,662500
13.5918,674234
13.5966,691693
13.6013,742403
13.6061,848629
13.6108,1022146
13.6156,1194425
13.6204,1250778
13.6251,1219554
13.6299,1040764
13.6347,897932
13.6394,823799
13.6442,714603
13.6489,744092
13.6537,738549
13.6585,724302
13.6632,700099
13.668,702182
13.6727,662062
13.6775,676277
13.6823,629332
13.687,689935
13.6918,674240
13.6966,680409
13.7013,678680
13.7061,708639
13.7108,674759
13.7156,683730
13.7204,694959
13.7251,691031
13.7299,703805
13.7347,683186
13.7394,709245
13.7442,770717
13.7489,804885
13.7537,877946
13.7585,949645
13.7632,977444
13.768,960434
13.7727,868037
13.7775,867257
13.7823,794663
13.787,737351
13.7918,767526
13.7966,738594
13.8013,710905
13.8061,700631
13.8108,721984
13.8156,748441
13.8204,700795
13.8251,723745
13.8299,735604
13.8347,706591
13.8394,737151
13.8442,881416
13.8489,761157
13.8537,782494
13.8585,774017
13.8632,766128
13.868,798002
13.8728,834034
13.8775,784965
13.8823,757060
13.887,777673
13.8918,806242
13.8966,742829
13.9013,758036
13.9061,822090
13.9108,784298
13.9156,797052
13.9204,796958
13.9251,796275
13.9299,771031
13.9347,792235
13.9394,784974
13.9442,790552
13.9489,787610
13.9537,792559
13.9585,803125
13.9632,840078
13.968,830551
13.9728,796239
13.9775,786531
13.9823,814876
13.987,775895
13.9918,792621
13.9966,801786
14.0013,803006
14.0061,816510
14.0108,830284
14.0156,802482
14.0204,802987
14.0251,838743
14.0299,817652
14.0347,827712
14.0394,802393
14.0442,848141
14.0489,856162
14.0537,826517
14.0585,853371
14.0632,839607
14.068,849121
14.0728,862056
14.0775,822443
14.0823,830794
14.087,853532
14.0918,827183
14.0966,840726
14.1013,833520
14.1061,823842
14.1108,792633
14.1156,852499
14.1204,885000
14.1251,887684
14.1299,896244
14.1347,975753
14.1394,1019919
14.1442,1148028
14.1489,1249191
14.1537,1315176
14.1585,1348002
14.1632,1286692
14.168,1150285
14.1728,1045850
14.1775,967422
14.1823,892852
14.187,932851
14.1918,859162
14.1966,889622
14.2013,929099
14.2061,917070
14.2109,931693
14.2156,928914
14.2204,1011428
14.2251,1141547
14.2299,1344228
14.2347,1628309
14.2394,1715175
14.2442,1706296
14.2489,1573641
14.2537,1279425
14.2585,1100405
14.2632,1015109
14.268,986431
14.2728,947642
14.2775,927569
14.2823,920874
14.287,893127
14.2918,969273
14.2966,905412
14.3013,916888
14.3061,947377
14.3109,930497
14.3156,981002
14.3204,948276
14.3251,936674
14.3299,916830
14.3347,928597
14.3394,916770
14.3442,893010
14.3489,889503
14.3537,878666
14.3585,913747
14.3632,863643
14.368,906360
14.3728,940297
14.3775,903987
14.3823,850633
14.387,884551
14.3918,874009
14.3966,915263
14.4013,908332
14.4061,885429
14.4109,890011
14.4156,929661
14.4204,909632
14.4251,903896
14.4299,900232
14.4347,948438
14.4394,954138
14.4442,922810
14.4489,932272
14.4537,948218
14.4585,955040
14.4632,914248
14.468,937056
14.4728,895965
14.4775,886373
14.4823,897533
14.487,937593
14.4918,938649
14.4966,889530
14.5013,941553
14.5061,878592
14.5109,915085
14.5156,930257
14.5204,948080
14.5251,993637
14.5299,973886
14.5347,979785
14.5394,961744
14.5442,903557
14.549,925845
14.5537,908102
14.5585,916982
14.5632,941099
14.568,895625
14.5728,853304
14.5775,887830
14.5823,927240
14.587,929575
14.5918,895080
14.5966,868616
14.6013,874050
14.6061,974306
14.6109,875320
14.6156,935918
14.6204,926267
14.6251,893486
14.6299,916949
14.6347,930030
14.6394,894334
14.6442,902691
14.649,926663
14.6537,918141
14.6585,891589
14.6632,922096
14.668,906599
14.6728,901838
14.6775,904941
14.6823,870316
14.687,868733
14.6918,882505
14.6966,889602
14.7013,875899
14.7061,917939
14.7109,882778
14.7156,872464
14.7204,915524
14.7251,911083
14.7299,919907
14.7347,933127
14.7394,982217
14.7442,1086870
14.749,1277539
14.7537,1354759
14.7585,1423461
14.7632,1349660
14.768,1272417
14.7728,1122494
14.7775,1021131
14.7823,937993
14.787,966848
14.7918,945809
14.7966,891405
14.8013,902824
14.8061,889001
14.8109,900969
14.8156,867372
14.8204,832467
14.8251,887263
14.8299,855088
14.8347,890946
14.8394,866898
14.8442,850393
14.849,880796
14.8537,887715
14.8585,851430
14.8632,875891
14.868,846483
14.8728,869775
14.8775,879589
14.8823,849052
14.8871,851298
14.8918,883214
14.8966,870283
14.9013,882278
14.9061,909939
14.9109,887169
14.9156,893591
14.9204,873298
14.9251,881699
14.9299,875846
14.9347,863186
14.9394,869342
14.9442,873588
14.949,880640
14.9537,887669
14.9585,879257
14.9632,839836
14.968,836676
14.9728,874410
14.9775,871167
14.9823,860597
14.9871,849595
14.9918,870401
14.9966,857307
15.0013,831331
15.0061,868353
15.0109,869000
15.0156,864721
15.0204,874745
15.0251,802960
15.0299,840570
15.0347,869677
15.0394,868751
15.0442,879971
15.049,865159
15.0537,893773
15.0585,852712
15.0632,857779
15.068,875468
15.0728,880221
15.0775,918907
15.0823,874719
15.0871,844990
15.0918,859277
15.0966,888084
15.1013,875347
15.1061,878163
15.1109,854606
15.1156,878808
15.1204,892920
15.1251,858980
15.1299,856032
15.1347,848613
15.1394,845256
15.1442,857328
15.149,862652
15.1537,877585
15.1585,902327
15.1632,848654
15.168,858640
15.1728,866364
15.1775,848175
15.1823,861501
15.1871,924545
15.1918,957837
15.1966,953813
15.2013,1028735
15.2061,1012604
15.2109,965674
15.2156,935000
15.2204,890709
15.2252,876893
15.2299,875413
15.2347,908781
15.2394,878476
15.2442,843155
15.249,913544
15.2537,887711
15.2585,864232
15.2632,872506
15.268,893054
15.2728,862771
15.2775,916674
15.2823,878481
15.2871,850429
15.2918,837075
15.2966,842632
15.3013,836750
15.3061,829715
15.3109,850602
15.3156,804156
15.3204,839263
15.3252,898285
15.3299,849125
15.3347,861658
15.3394,835632
15.3442,824261
15.349,824593
15.3537,859232
15.3585,812294
15.3632,872848
15.368,820216
15.3728,844408
15.3775,802983
15.3823,849927
15.3871,835575
15.3918,855123
15.3966,811482
15.4013,889637
15.4061,852688
15.4109,865768
15.4156,893747
15.4204,909589
15.4252,904721
15.4299,886381
15.4347,830272
15.4394,849234
15.4442,852080
15.449,878754
15.4537,826818
15.4585,846334
15.4632,853205
15.468,835081
15.4728,871356
15.4775,854580
15.4823,868210
15.4871,806031
15.4918,802259
15.4966,849848
15.5013,856042
15.5061,851784
15.5109,846391
15.5156,854270
15.5204,844093
15.5252,914803
15.5299,983295
15.5347,1116566
15.5394,1243888
15.5442,1485755
15.549,1531773
15.5537,1507028
15.5585,1296342
15.5633,1140357
15.568,1022015
15.5728,899587
15.5775,857048
15.5823,858591
15.5871,849198
15.5918,852328
15.5966,867196
15.6013,880773
15.6061,858816
15.6109,897067
15.6156,899552
15.6204,893772
15.6252,888623
15.6299,897047
15.6347,900531
15.6394,904892
15.6442,897091
15.649,897150
15.6537,904476
15.6585,900414
15.6633,928218
15.668,940057
15.6728,1035585
15.6775,1317238
15.6823,1532512
15.6871,1756565
15.6918,1805318
15.6966,1649229
15.7013,1403117
15.7061,1095415
15.7109,998616
15.7156,935271
15.7204,950990
15.7252,948774
15.7299,987632
15.7347,999285
15.7394,969702
15.7442,994199
15.749,966103
15.7537,960568
15.7585,931126
15.7633,969330
15.768,970029
15.7728,968770
15.7775,901453
15.7823,948811
15.7871,988336
15.7918,984252
15.7966,972209
15.8013,979031
15.8061,959138
15.8109,957954
15.8156,961294
15.8204,944864
15.8252,1002585
15.8299,927568
15.8347,979709
15.8394,956151
15.8442,910695
15.849,939659
15.8537,974792
15.8585,1001518
15.8633,974156
15.868,988477
15.8728,999340
15.8775,956800
15.8823,1027514
15.8871,1039702
15.8918,1098522
15.8966,1116587
15.9014,1062299
15.9061,1040924
15.9109,993140
15.9156,1021919
15.9204,978625
15.9252,1020125
15.9299,1049807
15.9347,1002199
15.9394,1021195
15.9442,1039209
15.949,1003403
15.9537,984596
15.9585,1070170
15.9633,1048158
15.968,1035837
15.9728,1041221
15.9775,1025798
15.9823,1018521
15.9871,1041091
15.9918,1037351
15.9966,1022577
16.0013,1035212
16.0061,1077393
16.0109,1043776
16.0156,1103162
16.0204,1217915
16.0252,1362011
16.0299,1460497
16.0347,1462003
16.0394,1297711
16.0442,1187646
16.049,1131993
16.0537,1128407
16.0585,1080763
16.0633,1073050
16.068,1128280
16.0728,1101159
16.0775,1094793
16.0823,1099991
16.0871,1101420
16.0918,1156659
16.0966,1166924
16.1014,1171433
16.1061,1124814
16.1109,1140722
16.1156,1179256
16.1204,1174456
16.1252,1152954
16.1299,1150283
16.1347,1131839
16.1394,1186040
16.1442,1152798
16.149,1132319
16.1537,1214484
16.1585,1119582
16.1633,1191934
16.168,1200872
16.1728,1366156
16.1775,1191288
16.1823,1171963
16.1871,1187811
16.1918,1208393
16.1966,1222734
16.2014,1208296
16.2061,1186213
16.2109,1259030
16.2156,1216447
16.2204,1267776
16.2251,1288731
16.2299,1299891
16.2347,1287312
16.2395,1291293
16.2442,1274116
16.249,1306961
16.2537,1280944
16.2585,1270038
16.2632,1281793
16.268,1255823
16.2728,1291495
16.2775,1289193
16.2823,1253692
16.2871,1293375
16.2918,1313461
16.2966,1309881
16.3013,1333722
16.3061,1384563
16.3109,1357455
16.3156,1382193
16.3204,1353087
16.3252,1410832
16.3299,1340788
16.3347,1296777
16.3394,1375182
16.3442,1361014
16.349,1376154
16.3537,1363973
16.3585,1499092
16.3633,1710669
16.368,2197981
16.3728,2608198
16.3775,2551729
16.3823,2234138
16.3871,1816305
16.3918,1608591
16.3966,1571355
16.4014,1770788
16.4061,2433674
16.4109,3632940
16.4156,4139420
16.4204,3756779
16.4252,2858871
16.4299,2086375
16.4347,1808123
16.4395,1600055
16.4442,1585868
16.449,1563000
16.4537,1556638
16.4585,1564009
16.4632,1572768
16.468,1569836
16.4728,1613221
16.4775,1591805
16.4823,1606704
16.4871,1578021
16.4918,1607906
16.4966,1606469
16.5013,1670446
16.5061,1568175
16.5109,1565803
16.5156,1642463
16.5204,1635150
16.5252,1674474
16.5299,1679761
16.5347,1695777
16.5394,1747016
16.5442,1670287
16.549,1723205
16.5537,1697482
16.5585,1708670
16.5633,1611208
16.568,1723958
16.5728,1712182
16.5775,1691441
16.5823,1731671
16.5871,1749854
16.5918,1765845
16.5966,1749389
16.6014,1731866
16.6061,1809602
16.6109,1807883
16.6156,1808246
16.6204,1828513
16.6252,1829100
16.6299,1862443
16.6347,1975947
16.6395,1946713
16.6442,1889994
16.649,1850543
16.6537,1799594
16.6585,1848541
16.6633,1882238
16.668,1906085
16.6728,1906299
16.6776,1930276
16.6823,1946420
16.6871,1878848
16.6918,1899523
16.6966,1889705
16.7014,1916358
16.7061,1821613
16.7109,1844282
16.7156,1883420
16.7204,1901272
16.7252,1862991
16.7299,1910803
16.7347,1941204
16.7395,2014181
16.7442,2056716
16.749,2055094
16.7537,1993922
16.7585,1952917
16.7633,1909591
16.768,1928892
16.7728,1933798
16.7776,1966556
16.7823,2015610
16.7871,1975869
16.7918,1952919
16.7966,1984641
16.8013,1979761
16.8061,1932191
16.8109,2060610
16.8156,2021061
16.8204,2058189
16.8252,2048215
16.8299,2141013
16.8347,2105056
16.8394,2118385
16.8442,2131168
16.849,1943712
16.8537,2228081
16.8585,2540906
16.8633,2649321
16.868,2674602
16.8728,2419768
16.8775,2330838
16.8823,2181954
16.8871,2275329
16.8918,2272055
16.8966,2272255
16.9014,2340182
16.9061,2480923
16.9109,2896380
16.9156,2964257
16.9204,3048131
16.9252,2879030
16.9299,2576982
16.9347,2514337
16.9395,2406384
16.9442,2417595
16.949,2511020
16.9537,2524318
16.9585,2605442
16.9633,2543128
16.968,2592991
16.9728,2686463
16.9776,2772962
16.9823,3063188
16.9871,3167782
16.9918,3027445
16.9966,2822080
17.0013,2755142
17.0061,2818611
17.0109,3164977
17.0157,3681825
17.0204,3834114
17.0252,3574899
17.0299,3090553
17.0347,2743833
17.0394,2656939
17.0442,2638747
17.049,2607032
17.0537,2662086
17.0585,2580424
17.0633,2615651
17.068,2669270
17.0728,2663588
17.0775,2727750
17.0823,2631548
17.0871,2697045
17.0918,2670953
17.0966,2664033
17.1014,2589836
17.1061,2611760
17.1109,2654486
17.1156,2657758
17.1204,2676228
17.1252,2997121
17.1299,4326725
17.1347,8760283
17.1395,18682758
17.1442,29212160
17.149,29209136
17.1537,20804318
17.1585,11948215
17.1633,6857229
17.168,4783633
17.1728,4030725
17.1776,3563540
17.1823,3424731
17.1871,3368302
17.1918,3373896
17.1966,3383117
17.2014,3238170
17.2061,3167254
17.2109,3043637
17.2157,3038788
17.2204,2977674
17.2252,2928193
17.2299,2856086
17.2347,2853296
17.2395,2869061
17.2442,2856605
17.249,2846607
17.2537,2833892
17.2585,2817935
17.2633,2890025
17.268,2871316
17.2728,2911593
17.2776,2871441
17.2823,2850372
17.2871,2818840
17.2918,2915295
17.2966,3160487
17.3014,4267952
17.3061,7600664
17.3109,15130893
17.3157,25817070
17.3204,31544174
17.3252,24573726
17.3299,14770307
17.3347,8549169
17.3394,5659610
17.3442,4509223
17.349,3996728
17.3538,3673693
17.3585,3492475
17.3633,3280957
17.368,3279935
17.3728,3218971
17.3775,3181942
17.3823,3128811
17.3871,3055439
17.3918,3070963
17.3966,3035492
17.4014,3084821
17.4061,3003452
17.4109,3025669
17.4156,2998939
17.4204,2972707
17.4252,2926741
17.4299,2977803
17.4347,2956400
17.4395,2920716
17.4442,3043966
17.449,3036642
17.4537,3144741
17.4585,3120807
17.4633,3126577
17.468,3224088
17.4728,3153087
17.4776,3084269
17.4823,3027436
17.4871,2991913
17.4918,3025706
17.4966,2955570
17.5014,3055501
17.5061,3001037
17.5109,2962599
17.5157,2988716
17.5204,2930411
17.5252,2962258
17.5299,3005236
17.5347,3028976
17.5395,3023802
17.5442,3031690
17.549,3012189
17.5538,2975519
17.5585,2963735
17.5633,3003022
17.568,2992280
17.5728,2972947
17.5776,2975270
17.5823,2997291
17.5871,2970984
17.5918,3111788
17.5966,3308356
17.6014,3745000
17.6061,4116312
17.6109,4204658
17.6157,3971136
17.6204,3613416
17.6252,3333819
17.6299,3166819
17.6347,3148482
17.6395,3296869
17.6442,4470579
17.649,9595266
17.6538,26090828
17.6585,61891684
17.6633,100929152
17.668,120289432
17.6728,103790768
17.6776,65147736
17.6823,34099192
17.6871,18728566
17.6919,12047091
17.6966,8991280
17.7014,7483281
17.7061,6705059
17.7109,5910711
17.7157,5294101
17.7204,4975983
17.7252,4681852
17.7299,4419122
17.7347,4255357
17.7395,4086982
17.7442,3897465
17.749,3853630
17.7538,3755311
17.7585,3707006
17.7633,3715155
17.768,3765080
17.7728,4049063
17.7776,4575875
17.7823,5656958
17.7871,6833774
17.7919,7129181
17.7966,6545110
17.8014,5543882
17.8061,4711698
17.8109,4092778
17.8157,3798469
17.8204,3667647
17.8252,3609927
17.8299,3517707
17.8347,3425904
17.8395,3405187
17.8442,3351543
17.849,3295286
17.8538,3335240
17.8585,3295360
17.8633,3314576
17.868,3231939
17.8728,3273365
17.8776,3252188
17.8823,3298068
17.8871,3248731
17.8919,3230066
17.8966,3214327
17.9014,3417200
17.9061,3634465
17.9109,4211394
17.9156,4661997
17.9204,5117642
17.9252,4928024
17.9299,4389889
17.9347,3999572
17.9395,3685231
17.9442,3584323
17.949,3530917
17.9537,3636450
17.9585,3683303
17.9633,3574057
17.968,3427734
17.9728,3349548
17.9776,3371182
17.9823,3329397
17.9871,3238270
17.9918,3265171
17.9966,3275451
18.0014,3265505
18.0061,3346022
18.0109,3325787
18.0157,3244960
18.0204,3307471
18.0252,3341975
18.0299,3288360
18.0347,3266754
18.0395,3271407
18.0442,3306209
18.049,3278081
18.0538,3284842
18.0585,3278592
18.0633,3273862
18.068,3416254
18.0728,3701477
18.0776,5061590
18.0823,9982712
18.0871,23955486
18.0919,52645072
18.0966,87273056
18.1014,109155792
18.1061,110608840
18.1109,85742376
18.1157,51218052
18.1204,28018070
18.1252,16898312
18.13,11728027
18.1347,9370697
18.1395,8145511
18.1442,7661159
18.149,8110975
18.1538,9757619
18.1585,11703924
18.1633,12714838
18.168,11794367
18.1728,9932754
18.1776,7705649
18.1823,6369581
18.1871,5609901
18.1919,4961508
18.1966,4661456
18.2014,4394440
18.2061,4153656
18.2109,4202489
18.2157,4043337
18.2204,3998834
18.2252,3849368
18.23,3811645
18.2347,3747090
18.2395,3830567
18.2442,3683733
18.249,3698062
18.2538,3656573
18.2585,3645844
18.2633,3764681
18.268,4005922
18.2728,5522279
18.2776,10455820
18.2823,22432522
18.2871,42868616
18.2919,65534536
18.2966,78318344
18.3014,72094296
18.3061,54105128
18.3109,34499412
18.3157,20637454
18.3204,13244793
18.3252,9725304
18.33,8046116
18.3347,6958338
18.3395,6191910
18.3442,5844568
18.349,5364329
18.3538,5216244
18.3585,4954283
18.3633,4524550
18.3681,4489353
18.3728,4496392
18.3776,4206744
18.3823,4113641
18.3871,3987222
18.3919,4092428
18.3966,3952324
18.4014,3878246
18.4061,3750070
18.4109,3731597
18.4157,3718765
18.4204,3715553
18.4252,3704125
18.43,3593964
18.4347,3579742
18.4395,3531330
18.4442,3521630
18.449,3454258
18.4537,3499947
18.4585,3474604
18.4633,3459577
18.4681,3459220
18.4728,3448174
18.4776,3416817
18.4823,3396371
18.4871,3367717
18.4918,3363309
18.4966,3377198
18.5014,3336382
18.5061,3435026
18.5109,3388793
18.5157,3422447
18.5204,3342540
18.5252,3380792
18.5299,3368575
18.5347,3332696
18.5395,3330502
18.5442,3396031
18.549,3321522
18.5538,3388141
18.5585,3391431
18.5633,3396130
18.568,3272460
18.5728,3338791
18.5776,3225515
18.5823,3329875
18.5871,3340778
18.5919,3339193
18.5966,3234092
18.6014,3358966
18.6061,3315992
18.6109,3384724
18.6157,3528643
18.6204,3748410
18.6252,4111351
18.63,4472424
18.6347,4609975
18.6395,4666194
18.6442,4413283
18.649,4116422
18.6538,3785780
18.6585,3576720
18.6633,3570045
18.6681,3503814
18.6728,3670510
18.6776,4022201
18.6823,5335316
18.6871,9110758
18.6919,17770934
18.6966,32753292
18.7014,51772412
18.7062,64285892
18.7109,66800308
18.7157,58148856
18.7204,40344164
18.7252,25611696
18.73,15825322
18.7347,10876064
18.7395,8294897
18.7442,6987936
18.749,6084619
18.7538,5540396
18.7585,5308207
18.7633,4991993
18.7681,4673775
18.7728,4485937
18.7776,4370001
18.7823,4278055
18.7871,4081426
18.7919,3958277
18.7966,4067779
18.8014,3823231
18.8062,3764361
18.8109,3750423
18.8157,3684731
18.8204,3697644
18.8252,3728955
18.83,3863890
18.8347,4331368
18.8395,4910455
18.8442,5776243
18.849,6660590
18.8538,7161204
18.8585,7061570
18.8633,6410850
18.8681,5535098
18.8728,4825898
18.8776,4263147
18.8823,4062725
18.8871,3783065
18.8919,3700691
18.8966,3524002
18.9014,3540772
18.9062,3526401
18.9109,3507477
18.9157,3462957
18.9204,3276713
18.9252,3414318
18.93,3398875
18.9347,3369866
18.9395,3384062
18.9442,3373923
18.949,3330400
18.9538,3366113
18.9585,3248723
18.9633,3393575
18.9681,3284055
18.9728,3288035
18.9776,3252542
18.9823,3257377
18.9871,3214679
18.9919,3273367
18.9966,3233744
19.0014,3252408
19.0062,3287872
19.0109,3207032
19.0157,3285620
19.0204,3254187
19.0252,3210707
19.0299,3186898
19.0347,3223408
19.0395,3274997
19.0443,3293856
19.049,3250030
19.0538,3194263
19.0585,3135122
19.0633,3219073
19.068,3225889
19.0728,3173713
19.0776,3172718
19.0823,3177791
19.0871,3288217
19.0919,3113538
19.0966,3195411
19.1014,3217024
19.1062,3228017
19.1109,3185956
19.1157,3154769
19.1204,3225989
19.1252,3240872
19.13,3187183
19.1347,3184428
19.1395,3170415
19.1443,3096835
19.149,3223623
19.1538,3166102
19.1585,3192277
19.1633,3225569
19.1681,3162224
19.1728,3174971
19.1776,3174689
19.1823,3147334
19.1871,3206322
19.1919,3279220
19.1966,3371228
19.2014,3519987
19.2062,4111024
19.2109,5117580
19.2157,7727592
19.2204,11774390
19.2252,17482212
19.23,23734924
19.2347,27333668
19.2395,28103982
19.2443,24430116
19.249,18060958
19.2538,13013927
19.2585,9295096
19.2633,6993050
19.2681,5740135
19.2728,5039701
19.2776,4552179
19.2823,4240063
19.2871,4127958
19.2919,4118861
19.2966,4394815
19.3014,4629784
19.3062,4842895
19.3109,5319483
19.3157,5478873
19.3204,5465641
19.3252,5244772
19.33,4877015
19.3347,4374181
19.3395,3970741
19.3443,3837728
19.349,3729016
19.3538,3501889
19.3585,3451033
19.3633,3322089
19.3681,3399236
19.3728,3367226
19.3776,3328684
19.3824,3295748
19.3871,3317221
19.3919,3263960
19.3966,3273017
19.4014,3251526
19.4062,3235985
19.4109,3282937
19.4157,3219287
19.4204,3199498
19.4252,3212346
19.43,3190129
19.4347,3301470
19.4395,3322999
19.4443,3397488
19.449,3574439
19.4538,4189183
19.4585,5460151
19.4633,7587256
19.4681,10955425
19.4728,16006881
19.4776,21683356
19.4824,25569756
19.4871,25441554
19.4919,22917160
19.4966,18931954
19.5014,14058619
19.5062,10286432
19.5109,7703301
19.5157,6216337
19.5204,5175321
19.5252,4704013
19.53,4375793
19.5347,4078093
19.5395,4050986
19.5443,3844196
19.549,3690538
19.5538,3726106
19.5585,3620736
19.5633,3525790
19.5681,3490246
19.5728,3408710
19.5776,3425836
19.5824,3352019
19.5871,3367700
19.5919,3406304
19.5966,3310699
19.6014,3348434
19.6062,3236238
19.6109,3316743
19.6157,3277099
19.6204,3301286
19.6252,3175787
19.63,3211486
19.6347,3185724
19.6395,3189571
19.6443,3261143
19.649,3237570
19.6538,3176333
19.6585,3233398
19.6633,3199828
19.6681,3179538
19.6728,3180936
19.6776,3235303
19.6824,3121384
19.6871,3164816
19.6919,3174539
19.6966,3153884
19.7014,3200244
19.7062,3175328
19.7109,3158914
19.7157,3166558
19.7205,3130528
19.7252,3109679
19.73,3224432
19.7347,3173866
19.7395,3095394
19.7443,3132908
19.749,3231670
19.7538,3160912
19.7585,3103032
19.7633,3162382
19.7681,3124327
19.7728,3161819
19.7776,3095665
19.7824,3075477
19.7871,3118036
19.7919,3043852
19.7966,3127174
19.8014,3046559
19.8062,3173438
19.8109,3073719
19.8157,3119229
19.8205,3130641
19.8252,3107612
19.83,3066344
19.8347,3085135
19.8395,3072423
19.8443,3129839
19.849,3060873
19.8538,3053923
19.8585,3058053
19.8633,3023803
19.8681,3035619
19.8728,3070213
19.8776,3076406
19.8824,3049395
19.8871,3160974
19.8919,3072826
19.8966,3132046
19.9014,3177331
19.9062,3233122
19.9109,3199112
19.9157,3218118
19.9205,3328928
19.9252,3198611
19.93,3199720
19.9347,3165254
19.9395,3149941
19.9443,3107445
19.949,3159179
19.9538,3100888
19.9585,3073567
19.9633,3123337
19.9681,3124996
19.9728,3110272
19.9776,3258257
19.9824,3239100
19.9871,3419597
19.9919,3578320
19.9966,3803744
20.0014,4122377
20.0062,4511890
20.0109,4781456
20.0157,5042938
20.0205,5011152
20.0252,4916024
20.03,4544538
20.0347,4135209
20.0395,3804013
20.0443,3664551
20.049,3465439
20.0538,3368670
20.0586,3249260
20.0633,3236284
20.0681,3151230
20.0728,3224568
20.0776,3128554
20.0824,3142353
20.0871,3056291
20.0919,3155102
20.0966,3146558
20.1014,3110056
20.1062,3159187
20.1109,2991259
20.1157,3131519
20.1205,3138562
20.1252,3125477
20.13,3067385
20.1347,3158115
20.1395,3043097
20.1443,2961568
20.149,3017310
20.1538,3104464
20.1586,3018683
20.1633,3090308
20.1681,3036836
20.1728,3067280
20.1776,3065083
20.1824,3060472
20.1871,3157859
20.1919,3239602
20.1966,3260163
20.2014,3311395
20.2062,3298741
20.2109,3365774
20.2157,3266689
20.2205,3263323
20.2252,3133018
20.23,3167675
20.2347,3038382
20.2395,3129466
20.2443,3074307
20.249,3037794
20.2538,3019617
20.2586,3021362
20.2633,3091535
20.2681,3030760
20.2728,3035884
20.2776,2983822
20.2824,3054295
20.2871,3034617
20.2919,3068954
20.2966,3030488
20.3014,3032647
20.3062,3049440
20.3109,3039628
20.3157,3002981
20.3205,2987593
20.3252,3058767
20.33,3098171
20.3347,3076575
20.3395,3055656
20.3443,3033940
20.349,2973650
20.3538,3057471
20.3586,3006236
20.3633,2995418
20.3681,2916962
20.3728,3016693
20.3776,2974346
20.3824,3105126
20.3871,3084233
20.3919,2997363
20.3967,3045551
20.4014,2987728
20.4062,2943744
20.4109,3032552
20.4157,3020449
20.4205,3025800
20.4252,3050676
20.43,2969728
20.4347,2959616
20.4395,3027024
20.4443,2923259
20.449,3005682
20.4538,3053134
20.4586,2961781
20.4633,3033964
20.4681,3045178
20.4728,2985408
20.4776,2996616
20.4824,2926537
20.4871,2965279
20.4919,2958161
20.4967,2967829
20.5014,3057964
20.5062,2997804
20.5109,3062821
20.5157,2978796
20.5205,3017720
20.5252,3024076
20.53,2977212
20.5347,2952848
20.5395,3004773
20.5443,2958390
20.549,2991783
20.5538,2961108
20.5586,3039905
20.5633,3042571
20.5681,3001049
20.5728,2999410
20.5776,2986469
20.5824,2986915
20.5871,3001354
20.5919,2991250
20.5967,2960965
20.6014,2975836
20.6062,2997692
20.6109,2961752
20.6157,2956364
20.6205,3059281
20.6252,2956215
20.63,2978411
20.6347,2947123
20.6395,3014057
20.6443,2978251
20.649,2943407
20.6538,2988385
20.6586,3012456
20.6633,3008320
20.6681,2993354
20.6728,3048712
20.6776,3025173
20.6824,3034118
20.6871,3032654
20.6919,3129347
20.6967,3130786
20.7014,3204097
20.7062,3216255
20.7109,3278076
20.7157,3373246
20.7205,3357938
20.7252,3254932
20.73,3140805
20.7348,3131451
20.7395,3126736
20.7443,3119000
20.749,3045872
20.7538,3044894
20.7586,2911050
20.7633,2964903
20.7681,3015188
20.7728,3046424
20.7776,2990765
20.7824,2997420
20.7871,3026656
20.7919,2999689
20.7967,2945223
20.8014,2967213
20.8062,3027375
20.8109,3030680
20.8157,3035391
20.8205,3065476
20.8252,2957343
20.83,3041467
20.8348,2941033
20.8395,3019650
20.8443,3086310
20.849,3005048
20.8538,3013709
20.8586,2952906
20.8633,2985437
20.8681,3003076
20.8728,3019684
20.8776,2981032
20.8824,2926737
20.8871,2983142
20.8919,3011136
20.8967,3011465
20.9014,2973489
20.9062,3025509
20.9109,3021655
20.9157,2915676
20.9205,2964747
20.9252,3031581
20.93,2953635
20.9348,2975440
20.9395,2975821
20.9443,2926122
20.949,2991525
20.9538,2987280
20.9586,3075289
20.9633,3001023
20.9681,2938466
20.9728,2943766
20.9776,2976908
20.9824,2938202
20.9871,2986428
20.9919,2957991
20.9967,2968921
21.0014,2914886
21.0062,2966030
21.0109,3019531
21.0157,2991062
21.0205,2988043
21.0252,3065469
21.03,3173025
21.0348,3274377
21.0395,3327233
21.0443,3356996
21.049,3243213
21.0538,3415078
21.0586,3280894
21.0633,3260223
21.0681,3126558
21.0729,3200552
21.0776,3128330
21.0824,3114693
21.0871,3059847
21.0919,3078439
21.0967,2903222
21.1014,3012130
21.1062,2967228
21.1109,3017217
21.1157,2983155
21.1205,2976240
21.1252,2984785
21.13,3030805
21.1348,2963858
21.1395,2979183
21.1443,2938471
21.149,2962053
21.1538,3000613
21.1586,2884126
21.1633,2933716
21.1681,2942240
21.1729,2899513
21.1776,2878925
21.1824,2981316
21.1871,2970924
21.1919,2941447
21.1967,2984646
21.2014,2939776
21.2062,2941990
21.2109,2963015
21.2157,2926655
21.2205,2929890
21.2252,2979206
21.23,2885675
21.2348,2919797
21.2395,2940826
21.2443,2961314
21.249,2906044
21.2538,2971166
21.2586,2909926
21.2633,2984578
21.2681,2946864
21.2729,2886649
21.2776,2922050
21.2824,2900049
21.2871,2945443
21.2919,2907013
21.2967,2919380
21.3014,2912739
21.3062,2967996
21.3109,2879543
21.3157,2868264
21.3205,2947593
21.3252,2976619
21.33,2816452
21.3348,3051588
21.3395,2929949
21.3443,2931541
21.349,2955269
21.3538,2928877
21.3586,2966379
21.3633,2951356
21.3681,2935322
21.3729,2988168
21.3776,2940686
21.3824,2945828
21.3871,2932179
21.3919,2968360
21.3967,2922301
21.4014,2854899
21.4062,2962782
21.411,2927802
21.4157,2879290
21.4205,2983224
21.4252,2842927
21.43,2957453
21.4348,2908915
21.4395,2924863
21.4443,2901252
21.449,2990360
21.4538,2912599
21.4586,2945744
21.4633,3004394
21.4681,3010590
21.4729,2883460
21.4776,2947895
21.4824,2907985
21.4871,2847161
21.4919,2971096
