D:\DATA\HAMBERGER\NICK\20230701\20230701_5-26-23_NBenthi_17.D  1 Jul 23  11:47 pm
Start of data points
4.09155,2658205
4.09632,2575484
4.10107,2466581
4.10583,2487486
4.1106,2440950
4.11537,2401517
4.12012,2547115
4.12488,2642592
4.12965,2672683
4.1344,2497154
4.13917,2367248
4.14393,2515577
4.1487,2590682
4.15345,2289097
4.15822,2306174
4.16298,2203646
4.16773,2195919
4.1725,2201350
4.17727,2170151
4.18203,2226607
4.18678,2222000
4.19155,2315172
4.19632,2208046
4.20108,2104298
4.20583,2036494
4.2106,1976983
4.21537,1956957
4.22012,1943891
4.22488,1855499
4.22965,1915168
4.23442,2033726
4.23917,2066901
4.24393,2070903
4.2487,1959503
4.25345,1998686
4.25822,1919328
4.26298,1895406
4.26775,1935348
4.2725,1939099
4.27727,2161294
4.28203,2662598
4.28678,2635375
4.29155,2076382
4.29632,1919069
4.30108,1776124
4.30583,1846599
4.3106,1807995
4.31537,1780073
4.32012,1765309
4.32488,1777718
4.32965,1937660
4.33442,1928607
4.33917,1797179
4.34393,1807817
4.3487,1812453
4.35345,1832957
4.35822,2016201
4.36298,2045259
4.36775,2019820
4.3725,1954560
4.37727,2012075
4.38203,1910471
4.3868,1866642
4.39155,1804871
4.39632,1743648
4.40108,1770930
4.40583,1693441
4.4106,1748399
4.41537,1759464
4.42013,1688711
4.42488,1820701
4.42965,1869025
4.43442,1873845
4.43917,1728652
4.44393,1785637
4.4487,1793162
4.45347,1729605
4.45822,1619147
4.46298,1602705
4.46775,1637491
4.4725,1645914
4.47727,1562724
4.48203,1765440
4.4868,1599055
4.49155,1673831
4.49632,1691940
4.50108,1694598
4.50583,1626495
4.5106,1607406
4.51537,1614853
4.52013,1787558
4.52488,1748235
4.52965,1624669
4.53442,1539921
4.53918,1657040
4.54393,1717464
4.5487,1765186
4.55347,1673244
4.55822,1662583
4.56298,1652127
4.56775,1692417
4.57252,1733637
4.57727,2170706
4.58203,2205885
4.5868,2170193
4.59155,2022212
4.59632,1795201
4.60108,1652309
4.60585,1604656
4.6106,1522849
4.61537,1491201
4.62013,1515104
4.62488,1496093
4.62965,1461739
4.63442,1452551
4.63918,1435763
4.64393,1469407
4.6487,1469434
4.65347,1432436
4.65822,1466197
4.66298,1441208
4.66775,1521212
4.67252,1557815
4.67727,1488298
4.68203,1483559
4.6868,1445308
4.69155,1419511
4.69632,1441644
4.70108,1431816
4.70585,1395769
4.7106,1410393
4.71537,1470535
4.72013,1439633
4.7249,1447068
4.72965,1499841
4.73442,1399687
4.73918,1448792
4.74393,1408099
4.7487,1380822
4.75347,1426992
4.75823,1448100
4.76298,1367577
4.76775,1395044
4.77252,1377105
4.77727,1356215
4.78203,1359707
4.7868,1349499
4.79157,1373608
4.79632,1354588
4.80108,1313797
4.80585,1329482
4.8106,1340590
4.81537,1356651
4.82013,1308861
4.8249,1344274
4.82965,1340415
4.83442,1430234
4.83918,1464768
4.84393,1417406
4.8487,1439860
4.85347,1433801
4.85823,1478165
4.86298,1421767
4.86775,1432521
4.87252,1431376
4.87727,1393203
4.88203,1469107
4.8868,1439968
4.89157,1435356
4.89632,1458617
4.90108,1444602
4.90585,1438350
4.91062,1406378
4.91537,1467845
4.92013,1417783
4.9249,1506178
4.92965,1477150
4.93442,1525443
4.93918,1486412
4.94395,1458327
4.9487,1448724
4.95347,1402089
4.95823,1391331
4.96298,1452296
4.96775,1385905
4.97252,1355080
4.97728,1334195
4.98203,1388480
4.9868,1374537
4.99157,1385514
4.99632,1391708
5.00108,1396502
5.00585,1414015
5.01062,1395393
5.01537,1369604
5.02013,1360143
5.0249,1371969
5.02965,1379751
5.03442,1352402
5.03918,1383890
5.04395,1340977
5.0487,1367289
5.05347,1366734
5.05823,1370987
5.063,1383187
5.06775,1483118
5.07252,1384606
5.07728,1376624
5.08203,1339649
5.0868,1381939
5.09157,1386522
5.09633,1375519
5.10108,1316018
5.10585,1307911
5.11062,1325135
5.11537,1286745
5.12013,1367642
5.1249,1333386
5.12967,1398143
5.13442,1397453
5.13918,1389626
5.14395,1421517
5.1487,1411509
5.15347,1438834
5.15823,1453352
5.163,1474695
5.16775,1488341
5.17252,1576833
5.17728,1522591
5.18203,1536314
5.1868,1475179
5.19157,1528276
5.19633,1424842
5.20108,1507105
5.20585,1417336
5.21062,1455506
5.21537,1515914
5.22013,1457857
5.2249,1505891
5.22967,1498126
5.23442,1556640
5.23918,1550518
5.24395,1469317
5.24872,1504485
5.25347,1489190
5.25823,1594747
5.263,1775139
5.26775,2029636
5.27252,2018048
5.27728,1811348
5.28205,1659907
5.2868,1509013
5.29157,1525528
5.29633,1472826
5.30108,1524605
5.30585,1481799
5.31062,1531666
5.31538,1480518
5.32013,1482469
5.3249,1440187
5.32967,1519690
5.33442,1456524
5.33918,1470397
5.34395,1488271
5.34872,1478519
5.35347,1493517
5.35823,1515145
5.363,1481281
5.36775,1534135
5.37252,1434790
5.37728,1483227
5.38205,1506451
5.3868,1508873
5.39157,1538402
5.39633,1525130
5.4011,1542140
5.40585,1513193
5.41062,1502566
5.41538,1526900
5.42013,1542801
5.4249,1567752
5.42967,1578685
5.43443,1522644
5.43918,1516988
5.44395,1480756
5.44872,1497593
5.45347,1466143
5.45823,1441471
5.463,1507952
5.46777,1485640
5.47252,1499906
5.47728,1515728
5.48205,1471285
5.4868,1429005
5.49157,1453413
5.49633,1457371
5.5011,1423849
5.50585,1419760
5.51062,1462924
5.51538,1497199
5.52013,1485086
5.5249,1420558
5.52967,1444725
5.53443,1406585
5.53918,1386120
5.54395,1428076
5.54872,1466126
5.55347,1402758
5.55823,1371373
5.563,1454468
5.56777,1462649
5.57252,1384148
5.57728,1360411
5.58205,1416905
5.58682,1402435
5.59157,1407597
5.59633,1450940
5.6011,1426437
5.60585,1390803
5.61062,1430083
5.61538,1408297
5.62015,1438394
5.6249,1427148
5.62967,1387892
5.63443,1430492
5.63918,1409338
5.64395,1431464
5.64872,1404892
5.65348,1458651
5.65823,1582682
5.663,1402307
5.66777,1435049
5.67252,1400593
5.67728,1412911
5.68205,1469923
5.68682,1398081
5.69157,1439735
5.69633,1458275
5.7011,1414066
5.70585,1436436
5.71062,1442320
5.71538,1413396
5.72015,1384533
5.7249,1410008
5.72967,1431070
5.73443,1420285
5.7392,1412430
5.74395,1376727
5.74872,1419453
5.75348,1652468
5.75823,2937666
5.763,4032937
5.76777,4393812
5.77253,4338000
5.77728,4122695
5.78205,4004512
5.78682,3863747
5.79157,3795765
5.79633,3559080
5.8011,3496181
5.80587,3456084
5.81062,3242177
5.81538,3136861
5.82015,3091681
5.8249,2866752
5.82967,2885824
5.83443,2766654
5.8392,2669695
5.84395,2667940
5.84872,2551726
5.85348,2536460
5.85823,2423410
5.863,2406166
5.86777,2428237
5.87253,2369727
5.87728,2355685
5.88205,2303054
5.88682,2231082
5.89157,2164260
5.89633,2153991
5.9011,2057867
5.90587,1993257
5.91062,2037168
5.91538,2021312
5.92015,1874405
5.92492,1904575
5.92967,1850825
5.93443,1821909
5.9392,1839417
5.94395,1759554
5.94872,1705111
5.95348,1667390
5.95825,1767889
5.963,1844467
5.96777,2040049
5.97253,2023144
5.97728,1875159
5.98205,1786148
5.98682,1694075
5.99158,1679964
5.99633,1618879
6.0011,1615527
6.00587,1566838
6.01062,1585520
6.01538,816970
6.02015,1325790
6.02492,1498028
6.02967,1456864
6.03443,1468142
6.0392,1481613
6.04395,1475641
6.04872,1458316
6.05348,1456294
6.05825,1520001
6.063,1468245
6.06777,1487599
6.07253,1543933
6.07728,1655122
6.08205,1837684
6.08682,1913745
6.09158,1846174
6.09633,1651359
6.1011,1527127
6.10587,1423444
6.11063,1475617
6.11538,1425474
6.12015,1384226
6.12492,1411513
6.12967,1413341
6.13443,1374146
6.1392,1389805
6.14397,1350499
6.14872,1406573
6.15348,1415727
6.15825,1387522
6.163,1395636
6.16777,1402975
6.17253,1481132
6.1773,1491566
6.18205,1460930
6.18682,1426230
6.19158,1415926
6.19633,1385006
6.2011,1308774
6.20587,1473530
6.21063,1464894
6.21538,1507769
6.22015,1408720
6.22492,1378183
6.22967,1371286
6.23443,1340413
6.2392,1372591
6.24397,1309546
6.24872,1257844
6.25348,1329315
6.25825,1276176
6.26302,1313407
6.26777,1303049
6.27253,1219358
6.2773,1213511
6.28205,1266402
6.28682,1233928
6.29158,1252717
6.29635,1224170
6.3011,1226782
6.30587,1254963
6.31063,1298489
6.31538,1223790
6.32015,1262033
6.32492,1275685
6.32968,1249367
6.33443,1249843
6.3392,1180398
6.34397,1212359
6.34872,1215610
6.35348,1174986
6.35825,1176871
6.36302,1179843
6.36777,1220267
6.37253,1155106
6.3773,1155490
6.38205,1164060
6.38682,1147014
6.39158,1183842
6.39635,1218743
6.4011,1211254
6.40587,1236303
6.41063,1287816
6.41538,1375210
6.42015,1318656
6.42492,1326502
6.42968,1246651
6.43443,1273504
6.4392,1206737
6.44397,1220459
6.44873,1186546
6.45348,1200037
6.45825,1163240
6.46302,1197371
6.46777,1173019
6.47253,1191391
6.4773,1212719
6.48207,1183090
6.48682,1198334
6.49158,1212545
6.49635,1224080
6.5011,1223826
6.50587,1182694
6.51063,1185105
6.5154,1116805
6.52015,1153631
6.52492,1135099
6.52968,1137966
6.53443,1212190
6.5392,1149349
6.54397,1138735
6.54873,1115085
6.55348,1084198
6.55825,1106595
6.56302,1102842
6.56777,1116880
6.57253,1087824
6.5773,1168217
6.58207,1103429
6.58682,1036902
6.59158,1128887
6.59635,1096634
6.60112,1135295
6.60587,1101650
6.61063,1160700
6.6154,1098514
6.62015,1130108
6.62492,1102714
6.62968,1108862
6.63445,1132667
6.6392,1182037
6.64397,1122494
6.64873,1110715
6.65348,1145420
6.65825,1157277
6.66302,1128272
6.66778,1134366
6.67253,1104009
6.6773,1109238
6.68207,1109692
6.68682,1095850
6.69158,1077709
6.69635,1096378
6.70112,1097087
6.70587,1099686
6.71063,1102479
6.7154,1056989
6.72015,1082125
6.72492,1107480
6.72968,1059914
6.73445,1083957
6.7392,1073849
6.74397,1137464
6.74873,1058360
6.75348,1040017
6.75825,1056064
6.76302,1053867
6.76778,1087365
6.77253,1083925
6.7773,1114147
6.78207,1109572
6.78683,1087580
6.79158,1074092
6.79635,1058846
6.80112,1068670
6.80587,1061336
6.81063,1021651
6.8154,1037525
6.82017,1055370
6.82492,1092298
6.82968,1107379
6.83445,1201554
6.8392,1329916
6.84397,1365743
6.84873,1334697
6.8535,1241006
6.85825,1186582
6.86302,1085335
6.86778,1083411
6.87253,1044022
6.8773,1040157
6.88207,1023355
6.88683,1022237
6.89158,1003036
6.89635,1002070
6.90112,987257
6.90587,1010206
6.91063,948673
6.9154,970388
6.92017,981569
6.92492,1006966
6.92968,984208
6.93445,958409
6.9392,940221
6.94397,959030
6.94873,963064
6.9535,935361
6.95825,980947
6.96302,948813
6.96778,975529
6.97255,945820
6.9773,913017
6.98207,938435
6.98683,896322
6.99158,990896
6.99635,929878
7.00112,972189
7.00588,942027
7.01063,977597
7.0154,926038
7.02017,956093
7.02492,931589
7.02968,979392
7.03445,902924
7.03922,935103
7.04397,939883
7.04873,961020
7.0535,923865
7.05825,931891
7.06302,907491
7.06778,896920
7.07255,890421
7.0773,936627
7.08207,892269
7.08683,892941
7.09158,910799
7.09635,868686
7.10112,875859
7.10588,843678
7.11063,882549
7.1154,886876
7.12017,887833
7.12493,864202
7.12968,869513
7.13445,867015
7.13922,903764
7.14397,872253
7.14873,904992
7.1535,890210
7.15827,838395
7.16302,906233
7.16778,898922
7.17255,858494
7.1773,880515
7.18207,856748
7.18683,901080
7.1916,829163
7.19635,872170
7.20112,864504
7.20588,856628
7.21063,827970
7.2154,870047
7.22017,866712
7.22493,850469
7.22968,807702
7.23445,888153
7.23922,867513
7.24397,796989
7.24873,813877
7.2535,859681
7.25827,828487
7.26302,825175
7.26778,859477
7.27255,843830
7.2773,831507
7.28207,873622
7.28683,826755
7.2916,824195
7.29635,867780
7.30112,818523
7.30588,880143
7.31065,833121
7.3154,856321
7.32017,833749
7.32493,820906
7.32968,854822
7.33445,838791
7.33922,832606
7.34398,805588
7.34873,812794
7.3535,816130
7.35827,816105
7.36302,841470
7.36778,816615
7.37255,822925
7.37732,806236
7.38207,816106
7.38683,812994
7.3916,803706
7.39635,808185
7.40112,792784
7.40588,789675
7.41065,803990
7.4154,840590
7.42017,806087
7.42493,816832
7.42968,811433
7.43445,773767
7.43922,791755
7.44398,805031
7.44873,797267
7.4535,773421
7.45827,800720
7.46303,803015
7.46778,818604
7.47255,801582
7.47732,772140
7.48207,822482
7.48683,809224
7.4916,755115
7.49637,819327
7.50112,807898
7.50588,768041
7.51065,792786
7.5154,813770
7.52017,828398
7.52493,868332
7.5297,917499
7.53445,969048
7.53922,1023528
7.54398,1036985
7.54873,952249
7.5535,913639
7.55827,849870
7.56303,801016
7.56778,799839
7.57255,789786
7.57732,813130
7.58207,805590
7.58683,791595
7.5916,802752
7.59637,794672
7.60112,765349
7.60588,789988
7.61065,799678
7.6154,839428
7.62017,796411
7.62493,762494
7.6297,809394
7.63445,766003
7.63922,781630
7.64398,792182
7.64875,797097
7.6535,754354
7.65827,789178
7.66303,776288
7.66778,766458
7.67255,775033
7.67732,754496
7.68208,746883
7.68683,749494
7.6916,736161
7.69637,758277
7.70112,738780
7.70588,726836
7.71065,731900
7.71542,718175
7.72017,738647
7.72493,724613
7.7297,718171
7.73445,736277
7.73922,720917
7.74398,734029
7.74875,714745
7.7535,757610
7.75827,699333
7.76303,767940
7.76778,762459
7.77255,788793
7.77732,783529
7.78208,797539
7.78683,791307
7.7916,786445
7.79637,763000
7.80112,758487
7.80588,761101
7.81065,774990
7.81542,782944
7.82017,725617
7.82493,750363
7.8297,792820
7.83447,752937
7.83922,733975
7.84398,736091
7.84875,768612
7.8535,712796
7.85827,731631
7.86303,686041
7.8678,726427
7.87255,716508
7.87732,744113
7.88208,765559
7.88683,706126
7.8916,740363
7.89637,706297
7.90113,738100
7.90588,713576
7.91065,752501
7.91542,787021
7.92017,891090
7.92493,958114
7.9297,993532
7.93447,998333
7.93922,993348
7.94398,922771
7.94875,882432
7.9535,819849
7.95827,800795
7.96303,818871
7.9678,742385
7.97255,768316
7.97732,751568
7.98208,781214
7.98685,774708
7.9916,713396
7.99637,733390
8.00113,736606
8.00588,752021
8.01065,753203
8.01542,727999
8.02018,740775
8.02493,724555
8.0297,725932
8.03447,758250
8.03922,712234
8.04398,714206
8.04875,724233
8.05352,717500
8.05827,730572
8.06303,724329
8.0678,817999
8.07255,892228
8.07732,951730
8.08208,906727
8.08685,892749
8.0916,875096
8.09637,829079
8.10113,742597
8.10588,750447
8.11065,769753
8.11542,735662
8.12018,747471
8.12493,754203
8.1297,733253
8.13447,739187
8.13922,736815
8.14398,713580
8.14875,736005
8.15352,700814
8.15827,681853
8.16303,684098
8.1678,693607
8.17257,665405
8.17732,667103
8.18208,674212
8.18685,661283
8.1916,666442
8.19637,682362
8.20113,719223
8.2059,670273
8.21065,690138
8.21542,677890
8.22018,682757
8.22493,680435
8.2297,685613
8.23447,665522
8.23923,667171
8.24398,681594
8.24875,653410
8.25352,662349
8.25827,663732
8.26303,679003
8.2678,676167
8.27257,688858
8.27732,651787
8.28208,623369
8.28685,666368
8.2916,673003
8.29637,662508
8.30113,650836
8.3059,631835
8.31065,668007
8.31542,630934
8.32018,632964
8.32495,666294
8.3297,637617
8.33447,660285
8.33923,647648
8.34398,683228
8.34875,675350
8.35352,701178
8.35828,688169
8.36303,637463
8.3678,651646
8.37257,661354
8.37732,668083
8.38208,650389
8.38685,649822
8.39162,620978
8.39637,641381
8.40113,658085
8.4059,641999
8.41065,653592
8.41542,641490
8.42018,646578
8.42495,643405
8.4297,661640
8.43447,636652
8.43923,631928
8.44398,614740
8.44875,656257
8.45352,657748
8.45828,612199
8.46303,627494
8.4678,601449
8.47257,616949
8.47732,643938
8.48208,609005
8.48685,622773
8.49162,640064
8.49637,614068
8.50113,643826
8.5059,641020
8.51067,626360
8.51542,674176
8.52018,670869
8.52495,628005
8.5297,647809
8.53447,630648
8.53923,637318
8.544,642652
8.54875,609227
8.55352,626951
8.55828,591276
8.56303,607732
8.5678,620156
8.57257,630638
8.57733,604093
8.58208,630057
8.58685,606650
8.59162,654293
8.59637,610565
8.60113,602715
8.6059,625632
8.61067,607573
8.61542,622738
8.62018,600798
8.62495,648114
8.6297,654165
8.63447,591473
8.63923,638142
8.644,608111
8.64875,587903
8.65352,621588
8.65828,616460
8.66303,596640
8.6678,590533
8.67257,587826
8.67733,619202
8.68208,590994
8.68685,605377
8.69162,620637
8.69638,616412
8.70113,631780
8.7059,635474
8.71067,630196
8.71542,616226
8.72018,618325
8.72495,608916
8.72972,594730
8.73447,598148
8.73923,563449
8.744,593338
8.74875,573129
8.75352,576422
8.75828,562132
8.76305,571467
8.7678,592384
8.77257,607195
8.77733,594005
8.78208,587456
8.78685,559861
8.79162,570609
8.79638,587349
8.80113,589240
8.8059,587942
8.81067,612085
8.81542,589663
8.82018,583098
8.82495,598628
8.82972,610813
8.83447,566194
8.83923,602946
8.844,574026
8.84877,597237
8.85352,580448
8.85828,598121
8.86305,613615
8.8678,598312
8.87257,584878
8.87733,595453
8.8821,586838
8.88685,583142
8.89162,581874
8.89638,601707
8.90113,573616
8.9059,570034
8.91067,560647
8.91543,590807
8.92018,551533
8.92495,551676
8.92972,572207
8.93447,579414
8.93923,550614
8.944,566188
8.94877,559377
8.95352,575937
8.95828,566214
8.96305,605942
8.9678,599645
8.97257,621738
8.97733,649237
8.9821,707224
8.98685,717796
8.99162,745456
8.99638,824990
9.00113,796157
9.0059,786699
9.01067,763668
9.01543,740169
9.02018,650381
9.02495,647803
9.02972,600867
9.03448,594827
9.03923,602789
9.044,582174
9.04877,609900
9.05352,562849
9.05828,590004
9.06305,583952
9.06782,567005
9.07257,586697
9.07733,561042
9.0821,587858
9.08685,567302
9.09162,577851
9.09638,562460
9.10115,636025
9.1059,662563
9.11067,719891
9.11543,745768
9.12018,817343
9.12495,830487
9.12972,867673
9.13448,842503
9.13923,853303
9.144,773827
9.14877,753160
9.15352,686864
9.15828,648767
9.16305,625903
9.16782,595113
9.17257,582020
9.17733,583317
9.1821,559034
9.18687,556137
9.19162,556241
9.19638,600300
9.20115,546152
9.2059,560077
9.21067,566503
9.21543,558839
9.2202,547830
9.22495,558471
9.22972,550165
9.23448,587678
9.23923,559450
9.244,543757
9.24877,570247
9.25353,554001
9.25828,547577
9.26305,575838
9.26782,574217
9.27257,553810
9.27733,544817
9.2821,554002
9.28687,537526
9.29162,563635
9.29638,544379
9.30115,563510
9.3059,551188
9.31067,561334
9.31543,568850
9.3202,582449
9.32495,574965
9.32972,574687
9.33448,589102
9.33923,582968
9.344,571634
9.34877,600756
9.35353,581918
9.35828,577101
9.36305,580090
9.36782,554345
9.37258,551935
9.37733,551279
9.3821,578457
9.38687,542998
9.39162,540238
9.39638,588850
9.40115,602419
9.40592,598253
9.41067,579640
9.41543,570463
9.4202,551744
9.42495,560348
9.42972,543566
9.43448,515766
9.43925,551732
9.444,542259
9.44877,550644
9.45353,529161
9.45828,518242
9.46305,525744
9.46782,519680
9.47258,526279
9.47733,542383
9.4821,529615
9.48687,534632
9.49162,533393
9.49638,507490
9.50115,544775
9.50592,541866
9.51067,489715
9.51543,513769
9.5202,565585
9.52497,571298
9.52972,536537
9.53448,543037
9.53925,555233
9.544,562391
9.54877,577668
9.55353,548029
9.5583,560781
9.56305,537705
9.56782,529911
9.57258,509384
9.57733,528269
9.5821,548231
9.58687,543322
9.59163,560426
9.59638,570925
9.60115,567994
9.60592,611630
9.61067,612487
9.61543,632454
9.6202,667593
9.62497,673172
9.62972,627054
9.63448,630957
9.63925,607612
9.644,590916
9.64877,594076
9.65353,538068
9.6583,547526
9.66305,549491
9.66782,570489
9.67258,551599
9.67733,520075
9.6821,507224
9.68687,527374
9.69163,480081
9.69638,518976
9.70115,534636
9.70592,512249
9.71068,490221
9.71543,553089
9.7202,494740
9.72497,501490
9.72972,513219
9.73448,518865
9.73925,533432
9.74402,533910
9.74877,480434
9.75353,516333
9.7583,521202
9.76305,521000
9.76782,531598
9.77258,526285
9.77735,521687
9.7821,510593
9.78687,500904
9.79163,494894
9.79638,534805
9.80115,538321
9.80592,498268
9.81068,517606
9.81543,507188
9.8202,517716
9.82497,496847
9.82972,512555
9.83448,541839
9.83925,547736
9.84402,520971
9.84877,525575
9.85353,557910
9.8583,578462
9.86305,542683
9.86782,543632
9.87258,571864
9.87735,552861
9.8821,554707
9.88687,532232
9.89163,544633
9.8964,510909
9.90115,501801
9.90592,504249
9.91068,513266
9.91543,502343
9.9202,520653
9.92497,495859
9.92973,520696
9.93448,543922
9.93925,575786
9.94402,631196
9.94877,650517
9.95353,711349
9.9583,674834
9.96307,733695
9.96782,715779
9.97258,696404
9.97735,741132
9.9821,702373
9.98687,763141
9.99163,757884
9.9964,766803
10.0012,717392
10.0059,691425
10.0107,631918
10.0154,590217
10.0202,622384
10.025,572189
10.0297,555415
10.0345,560030
10.0393,540168
10.044,563927
10.0488,551343
10.0535,558594
10.0583,538922
10.0631,564056
10.0678,547901
10.0726,558149
10.0774,541974
10.0821,578170
10.0869,609948
10.0916,660743
10.0964,680436
10.1012,720537
10.1059,758947
10.1107,789290
10.1155,737495
10.1202,723556
10.125,654962
10.1297,621707
10.1345,635069
10.1393,611145
10.144,577009
10.1488,567236
10.1535,548172
10.1583,579446
10.1631,545303
10.1678,571258
10.1726,569171
10.1774,638829
10.1821,625529
10.1869,677291
10.1916,683683
10.1964,708807
10.2012,661728
10.2059,657756
10.2107,631448
10.2155,579720
10.2202,568159
10.225,584788
10.2297,555605
10.2345,536747
10.2393,540410
10.244,557930
10.2488,539430
10.2535,528614
10.2583,499454
10.2631,501084
10.2678,508007
10.2726,525877
10.2774,504133
10.2821,522671
10.2869,534635
10.2916,535939
10.2964,532103
10.3012,520507
10.3059,553642
10.3107,569600
10.3155,554009
10.3202,548868
10.325,518711
10.3297,505030
10.3345,504348
10.3393,521140
10.344,534581
10.3488,525336
10.3535,543975
10.3583,523001
10.3631,531714
10.3678,552077
10.3726,523289
10.3774,533294
10.3821,567630
10.3869,525466
10.3916,516912
10.3964,489998
10.4012,502759
10.4059,517175
10.4107,523895
10.4155,520735
10.4202,546944
10.425,565256
10.4297,576479
10.4345,568216
10.4393,558531
10.444,519238
10.4488,533841
10.4536,554408
10.4583,543294
10.4631,531502
10.4678,514433
10.4726,519332
10.4774,573354
10.4821,580623
10.4869,557367
10.4916,631369
10.4964,685411
10.5012,712649
10.5059,765487
10.5107,787569
10.5155,734843
10.5202,691642
10.525,644641
10.5297,627364
10.5345,585944
10.5393,634536
10.544,680478
10.5488,648838
10.5536,634442
10.5583,573897
10.5631,604080
10.5678,605084
10.5726,576885
10.5774,576081
10.5821,593323
10.5869,587688
10.5916,597456
10.5964,548829
10.6012,590761
10.6059,577895
10.6107,569952
10.6155,559779
10.6202,547880
10.625,548741
10.6297,555462
10.6345,535961
10.6393,544821
10.644,533405
10.6488,558481
10.6536,550731
10.6583,547356
10.6631,560103
10.6678,623577
10.6726,630046
10.6774,644213
10.6821,662274
10.6869,672045
10.6916,682779
10.6964,709722
10.7012,712432
10.7059,731143
10.7107,663832
10.7155,690653
10.7202,651849
10.725,632659
10.7297,603124
10.7345,624687
10.7393,623185
10.744,595732
10.7488,593639
10.7536,582007
10.7583,674243
10.7631,712775
10.7678,778155
10.7726,891402
10.7774,840608
10.7821,890794
10.7869,794865
10.7917,758562
10.7964,686007
10.8012,657862
10.8059,672482
10.8107,636032
10.8155,623392
10.8202,579875
10.825,597328
10.8297,584272
10.8345,638321
10.8393,605458
10.844,609801
10.8488,654612
10.8536,636502
10.8583,640976
10.8631,627941
10.8678,618654
10.8726,648111
10.8774,627438
10.8821,627911
10.8869,624818
10.8917,633309
10.8964,617438
10.9012,599965
10.9059,625252
10.9107,632103
10.9155,598993
10.9202,649996
10.925,632306
10.9297,682414
10.9345,674237
10.9393,721714
10.944,794624
10.9488,988722
10.9536,1217331
10.9583,1288461
10.9631,1354268
10.9678,1249681
10.9726,1110338
10.9774,955594
10.9821,827148
10.9869,854605
10.9917,1000421
10.9964,1602824
11.0012,2717988
11.0059,4344067
11.0107,6173950
11.0155,7252427
11.0202,7225084
11.025,5737788
11.0297,3866926
11.0345,2589806
11.0393,1841579
11.044,1364946
11.0488,1123810
11.0536,1022701
11.0583,942332
11.0631,912397
11.0678,911218
11.0726,882208
11.0774,858240
11.0821,895726
11.0869,908827
11.0917,919446
11.0964,910477
11.1012,913889
11.1059,919733
11.1107,900680
11.1155,885358
11.1202,845954
11.125,825787
11.1298,804389
11.1345,748635
11.1393,712325
11.144,791361
11.1488,759521
11.1536,721806
11.1583,725322
11.1631,741218
11.1678,737405
11.1726,745164
11.1774,759786
11.1821,790463
11.1869,788084
11.1917,855855
11.1964,888780
11.2012,893337
11.2059,875397
11.2107,845952
11.2155,820173
11.2202,867281
11.225,971985
11.2298,1131166
11.2345,1334776
11.2393,1517499
11.244,1676687
11.2488,1586944
11.2536,1355572
11.2583,1124968
11.2631,948373
11.2678,865649
11.2726,851495
11.2774,833075
11.2821,781503
11.2869,779765
11.2917,783511
11.2964,778671
11.3012,786716
11.3059,759823
11.3107,728225
11.3155,730313
11.3202,755004
11.325,730710
11.3298,696083
11.3345,701000
11.3393,721607
11.344,735472
11.3488,691887
11.3536,711246
11.3583,732610
11.3631,725978
11.3678,716619
11.3726,717618
11.3774,683983
11.3821,756700
11.3869,696620
11.3917,731132
11.3964,735680
11.4012,760992
11.4059,754239
11.4107,736311
11.4155,777574
11.4202,799722
11.425,831784
11.4298,863439
11.4345,817003
11.4393,831921
11.444,831939
11.4488,766915
11.4536,761570
11.4583,759387
11.4631,733840
11.4679,715965
11.4726,756573
11.4774,765852
11.4821,776017
11.4869,881713
11.4917,925694
11.4964,918106
11.5012,916389
11.5059,835454
11.5107,810034
11.5155,783624
11.5202,750070
11.525,772907
11.5298,775765
11.5345,767869
11.5393,798588
11.544,757722
11.5488,781461
11.5536,734214
11.5583,726720
11.5631,714074
11.5679,689411
11.5726,728326
11.5774,718735
11.5821,738340
11.5869,780320
11.5917,810324
11.5964,889574
11.6012,855415
11.6059,892798
11.6107,914833
11.6155,877610
11.6202,834043
11.625,786076
11.6298,792034
11.6345,764022
11.6393,757050
11.644,783362
11.6488,857433
11.6536,959933
11.6583,1146280
11.6631,1323956
11.6679,1392956
11.6726,1369868
11.6774,1232090
11.6821,1121193
11.6869,1038374
11.6917,999466
11.6964,966087
11.7012,1106764
11.7059,1086253
11.7107,1034889
11.7155,906527
11.7202,856319
11.725,806081
11.7298,784922
11.7345,768030
11.7393,791136
11.744,785331
11.7488,817641
11.7536,808912
11.7583,826985
11.7631,836056
11.7679,922149
11.7726,1015503
11.7774,1070212
11.7821,1073816
11.7869,1080875
11.7917,1089465
11.7964,1073080
11.8012,1032037
11.806,977589
11.8107,960243
11.8155,953075
11.8202,945457
11.825,910038
11.8298,920868
11.8345,937670
11.8393,934967
11.844,1009413
11.8488,956925
11.8536,958994
11.8583,977110
11.8631,947262
11.8679,934227
11.8726,968664
11.8774,995324
11.8821,962653
11.8869,985629
11.8917,982155
11.8964,985842
11.9012,1019505
11.906,994581
11.9107,1078490
11.9155,1279658
11.9202,1532347
11.925,1728531
11.9298,1852518
11.9345,1769386
11.9393,1598022
11.944,1388483
11.9488,1283486
11.9536,1274219
11.9583,1211477
11.9631,1285897
11.9679,1338362
11.9726,1604257
11.9774,2098449
11.9821,2375927
11.9869,2615655
11.9917,2561332
11.9964,2245531
12.0012,2119282
12.006,2019245
12.0107,1792875
12.0155,1626931
12.0202,1369993
12.025,1244684
12.0298,1137699
12.0345,1028625
12.0393,1005730
12.044,1016055
12.0488,955081
12.0536,984568
12.0583,956524
12.0631,921424
12.0679,949955
12.0726,936240
12.0774,910281
12.0821,887393
12.0869,859485
12.0917,866628
12.0964,889496
12.1012,938877
12.106,1060928
12.1107,1321742
12.1155,1729774
12.1202,2112038
12.125,2301730
12.1298,2266483
12.1345,1964778
12.1393,1595883
12.1441,1303009
12.1488,1084538
12.1536,989030
12.1583,947420
12.1631,875017
12.1679,912310
12.1726,923211
12.1774,945855
12.1821,936345
12.1869,939963
12.1917,962840
12.1964,881107
12.2012,922872
12.206,908802
12.2107,927614
12.2155,952385
12.2202,920196
12.225,879609
12.2298,891411
12.2345,870018
12.2393,861408
12.2441,881461
12.2488,889754
12.2536,826993
12.2583,849037
12.2631,874255
12.2679,848048
12.2726,854131
12.2774,862367
12.2821,1041681
12.2869,1676104
12.2917,4219763
12.2964,13075807
12.3012,36526336
12.306,79877392
12.3107,134831104
12.3155,173452960
12.3202,180733488
12.325,149475648
12.3298,95376640
12.3345,45650712
12.3393,17647732
12.3441,6700708
12.3488,2954862
12.3536,1834508
12.3583,1539903
12.3631,1444835
12.3679,1449234
12.3726,1444651
12.3774,1414180
12.3821,1421127
12.3869,1385611
12.3917,1311825
12.3964,1351411
12.4012,1215587
12.406,1225193
12.4107,1184992
12.4155,1214816
12.4202,1159355
12.425,1291151
12.4298,1419533
12.4345,1752945
12.4393,2036088
12.4441,2224656
12.4488,2056108
12.4536,1821216
12.4583,1514910
12.4631,1267969
12.4679,1130541
12.4726,1125013
12.4774,1202026
12.4822,1293159
12.4869,1342138
12.4917,1330062
12.4964,1261552
12.5012,1194044
12.506,1186325
12.5107,1129214
12.5155,1074464
12.5202,1045884
12.525,994219
12.5298,987556
12.5345,989478
12.5393,958188
12.5441,971533
12.5488,1002414
12.5536,988718
12.5583,1006087
12.5631,1051474
12.5679,1156848
12.5726,1293394
12.5774,1406458
12.5822,1514422
12.5869,1480484
12.5917,1416932
12.5964,1324920
12.6012,1232910
12.606,1300019
12.6107,1410293
12.6155,1475732
12.6202,1542038
12.625,1554207
12.6298,1548317
12.6345,1432398
12.6393,1330319
12.6441,1269740
12.6488,1185202
12.6536,1141458
12.6583,1069061
12.6631,1044437
12.6679,1004813
12.6726,1004120
12.6774,1020119
12.6822,1105450
12.6869,1128096
12.6917,1160812
12.6964,1146953
12.7012,1111992
12.706,975720
12.7107,961514
12.7155,934066
12.7202,935306
12.725,952683
12.7298,901175
12.7345,924525
12.7393,948308
12.7441,969331
12.7488,900834
12.7536,938825
12.7583,890426
12.7631,942016
12.7679,934006
12.7726,972342
12.7774,982443
12.7822,986810
12.7869,943816
12.7917,958121
12.7964,994945
12.8012,981789
12.806,911927
12.8107,946455
12.8155,948707
12.8203,944625
12.825,950990
12.8298,956621
12.8345,944230
12.8393,920994
12.8441,895995
12.8488,890853
12.8536,895568
12.8583,870532
12.8631,890475
12.8679,894377
12.8726,903729
12.8774,916465
12.8822,861098
12.8869,884977
12.8917,882420
12.8964,925659
12.9012,927079
12.906,905099
12.9107,922674
12.9155,911145
12.9203,881239
12.925,890228
12.9298,856258
12.9345,877459
12.9393,870537
12.9441,913906
12.9488,850616
12.9536,864008
12.9583,857133
12.9631,879339
12.9679,922771
12.9726,914269
12.9774,878610
12.9822,900704
12.9869,889007
12.9917,908485
12.9964,906936
13.0012,919960
13.006,971490
13.0107,944309
13.0155,976342
13.0203,959773
13.025,913513
13.0298,898828
13.0345,900923
13.0393,920929
13.0441,980607
13.0488,1182660
13.0536,1593594
13.0583,2145311
13.0631,2977201
13.0679,3692971
13.0726,3899235
13.0774,3465382
13.0822,2578902
13.0869,1966180
13.0917,1501038
13.0964,1226594
13.1012,1110077
13.106,1112605
13.1107,1175942
13.1155,1362651
13.1203,1704689
13.125,2051039
13.1298,2473167
13.1345,2560800
13.1393,2487251
13.1441,2353289
13.1488,2138148
13.1536,1860878
13.1584,1710219
13.1631,1635305
13.1679,1491370
13.1726,1444467
13.1774,1317812
13.1822,1404850
13.1869,1524393
13.1917,1825197
13.1964,2219044
13.2012,2609383
13.206,2947922
13.2107,2788290
13.2155,2545133
13.2203,1983245
13.225,1631241
13.2298,1351447
13.2345,1184636
13.2393,1143698
13.2441,1118082
13.2488,1064041
13.2536,1122725
13.2584,1116825
13.2631,1023436
13.2679,1022026
13.2726,1033231
13.2774,1054527
13.2822,965810
13.2869,1018041
13.2917,1033715
13.2964,1071179
13.3012,1047059
13.306,996248
13.3107,1027579
13.3155,1037054
13.3203,1025947
13.325,1005963
13.3298,988524
13.3345,1043513
13.3393,1018945
13.3441,990017
13.3488,979265
13.3536,971874
13.3584,1014645
13.3631,967265
13.3679,1042342
13.3726,1029532
13.3774,998289
13.3822,978710
13.3869,998555
13.3917,1000277
13.3964,962502
13.4012,994035
13.406,981459
13.4107,1034462
13.4155,1148792
13.4203,1183512
13.425,1293263
13.4298,1324337
13.4345,1283197
13.4393,1224920
13.4441,1127423
13.4488,1099020
13.4536,1042400
13.4584,1028084
13.4631,998968
13.4679,995641
13.4726,992365
13.4774,1011142
13.4822,1046675
13.4869,1078635
13.4917,1259290
13.4965,1498139
13.5012,1834686
13.506,2175412
13.5107,2278394
13.5155,2179996
13.5203,1838898
13.525,1433922
13.5298,1207366
13.5345,1067439
13.5393,986360
13.5441,1023425
13.5488,973026
13.5536,992448
13.5584,979099
13.5631,987862
13.5679,993921
13.5726,980088
13.5774,940155
13.5822,976061
13.5869,986868
13.5917,993576
13.5965,970032
13.6012,919801
13.606,949034
13.6107,977205
13.6155,1015610
13.6203,982782
13.625,942430
13.6298,930115
13.6345,953224
13.6393,982900
13.6441,995405
13.6488,988731
13.6536,999199
13.6584,1007540
13.6631,968350
13.6679,946758
13.6726,946886
13.6774,943846
13.6822,894901
13.6869,884654
13.6917,917578
13.6965,899280
13.7012,906343
13.706,924990
13.7107,904933
13.7155,892406
13.7203,897485
13.725,929077
13.7298,920384
13.7345,914256
13.7393,926946
13.7441,933480
13.7488,978603
13.7536,990896
13.7584,1057431
13.7631,1091901
13.7679,1066845
13.7726,1035524
13.7774,964730
13.7822,925740
13.7869,904040
13.7917,884192
13.7965,883200
13.8012,894787
13.806,874518
13.8107,861544
13.8155,884054
13.8203,891018
13.825,874421
13.8298,882415
13.8346,875115
13.8393,856529
13.8441,861772
13.8488,901084
13.8536,944895
13.8584,961238
13.8631,1024115
13.8679,1090889
13.8726,1037273
13.8774,1089000
13.8822,1166379
13.8869,1118874
13.8917,1149426
13.8965,1212841
13.9012,1251906
13.906,1257887
13.9107,1222532
13.9155,1096024
13.9203,1016450
13.925,984279
13.9298,1011658
13.9346,992861
13.9393,957588
13.9441,940922
13.9488,942933
13.9536,934560
13.9584,948127
13.9631,949070
13.9679,959451
13.9726,972743
13.9774,1001698
13.9822,1048720
13.9869,1041025
13.9917,1110251
13.9965,1050987
14.0012,1022333
14.006,965329
14.0107,984059
14.0155,991710
14.0203,941325
14.025,983573
14.0298,923102
14.0346,1030030
14.0393,1171737
14.0441,1464047
14.0488,1878086
14.0536,2245694
14.0584,2266408
14.0631,2186016
14.0679,2072692
14.0726,2040173
14.0774,2122328
14.0822,2109642
14.0869,1986451
14.0917,1769121
14.0965,1531905
14.1012,1302981
14.106,1191534
14.1107,1105024
14.1155,1111224
14.1203,1050409
14.125,1021493
14.1298,1036819
14.1346,1071549
14.1393,1091897
14.1441,1114312
14.1488,1104883
14.1536,1159331
14.1584,1086168
14.1631,1110854
14.1679,1047719
14.1727,1010054
14.1774,976727
14.1822,949390
14.1869,985200
14.1917,1082526
14.1965,1086940
14.2012,1151079
14.206,1210853
14.2107,1179705
14.2155,1172764
14.2203,1136873
14.225,1145001
14.2298,1196363
14.2346,1206497
14.2393,1195498
14.2441,1159156
14.2488,1181020
14.2536,1201918
14.2584,1187380
14.2631,1265095
14.2679,1205368
14.2727,1173725
14.2774,1118927
14.2822,1071591
14.2869,1001150
14.2917,1016837
14.2965,1006091
14.3012,963138
14.306,1021119
14.3107,1070756
14.3155,1051386
14.3203,1037256
14.325,1090317
14.3298,1140390
14.3346,1136712
14.3393,1121653
14.3441,1142505
14.3488,1194466
14.3536,1230782
14.3584,1289227
14.3631,1436316
14.3679,1466983
14.3727,1582966
14.3774,1709497
14.3822,1812973
14.3869,1986252
14.3917,2093310
14.3965,1966701
14.4012,1866979
14.406,1558729
14.4107,1307380
14.4155,1240081
14.4203,1197020
14.425,1165635
14.4298,1239649
14.4346,1312751
14.4393,1286135
14.4441,1315502
14.4488,1311988
14.4536,1225720
14.4584,1252701
14.4631,1168367
14.4679,1195190
14.4727,1140282
14.4774,1170312
14.4822,1122899
14.4869,1160899
14.4917,1117140
14.4965,1127799
14.5012,1120304
14.506,1132655
14.5107,1059619
14.5155,1093620
14.5203,1062714
14.525,1060721
14.5298,1087963
14.5346,1074128
14.5393,1100757
14.5441,1081987
14.5488,1029843
14.5536,1027507
14.5584,1105318
14.5631,1048320
14.5679,1041300
14.5727,1066617
14.5774,1042542
14.5822,1020222
14.5869,1010368
14.5917,1052283
14.5965,1017894
14.6012,1047161
14.606,1023094
14.6108,1033590
14.6155,1037040
14.6203,1034774
14.625,999577
14.6298,1010977
14.6346,974441
14.6393,1049216
14.6441,1022954
14.6488,1083455
14.6536,1070287
14.6584,1057082
14.6631,1108077
14.6679,1113027
14.6727,1070178
14.6774,1101437
14.6822,1176541
14.6869,1085089
14.6917,1123118
14.6965,1104222
14.7012,1079020
14.706,1089682
14.7108,1094381
14.7155,1049907
14.7203,1045839
14.725,1078918
14.7298,1093057
14.7346,1105487
14.7393,1118369
14.7441,1201103
14.7488,1315313
14.7536,1300817
14.7584,1346235
14.7631,1307463
14.7679,1270015
14.7727,1165873
14.7774,1133104
14.7822,1076805
14.7869,1077335
14.7917,1094809
14.7965,1079480
14.8012,1041743
14.806,1096773
14.8108,1047499
14.8155,1030023
14.8203,1060707
14.825,1068465
14.8298,1103345
14.8346,1090688
14.8393,1116402
14.8441,1111360
14.8488,1064069
14.8536,1095722
14.8584,1064128
14.8631,1119291
14.8679,1036610
14.8727,1015606
14.8774,989589
14.8822,1008864
14.8869,1030655
14.8917,967050
14.8965,972775
14.9012,1020094
14.906,993445
14.9108,1032219
14.9155,992087
14.9203,1045704
14.925,1088637
14.9298,1104396
14.9346,1175216
14.9393,1204176
14.9441,1224144
14.9489,1197516
14.9536,1165034
14.9584,1081006
14.9631,1074843
14.9679,1099161
14.9727,1067242
14.9774,1086919
14.9822,1121496
14.9869,1130017
14.9917,1051490
14.9965,1099004
15.0012,1022720
15.006,1065479
15.0108,1057713
15.0155,1043283
15.0203,1032046
15.025,993501
15.0298,997207
15.0346,1002247
15.0393,1017883
15.0441,1036862
15.0489,1076524
15.0536,1028840
15.0584,1016250
15.0631,982179
15.0679,1049342
15.0727,1040827
15.0774,1040062
15.0822,997749
15.0869,1043933
15.0917,1014008
15.0965,1037512
15.1012,1011847
15.106,1031734
15.1108,1011145
15.1155,1011816
15.1203,1061039
15.125,967213
15.1298,953168
15.1346,1027398
15.1393,1020274
15.1441,1017294
15.1489,1081067
15.1536,1035290
15.1584,1160676
15.1631,1171434
15.1679,1200975
15.1727,1239051
15.1774,1194901
15.1822,1179441
15.1869,1103851
15.1917,1138890
15.1965,1138722
15.2012,1169073
15.206,1240194
15.2108,1364832
15.2155,1694116
15.2203,2047100
15.225,2252260
15.2298,2408216
15.2346,2363256
15.2393,2122288
15.2441,1837025
15.2489,1681877
15.2536,1564257
15.2584,1359805
15.2631,1368670
15.2679,1241274
15.2727,1199027
15.2774,1186049
15.2822,1150104
15.287,1173800
15.2917,1165394
15.2965,1112869
15.3012,1137692
15.306,1163187
15.3108,1194361
15.3155,1211833
15.3203,1178171
15.325,1188235
15.3298,1204407
15.3346,1181460
15.3393,1172865
15.3441,1127998
15.3489,1125037
15.3536,1118918
15.3584,1100053
15.3631,1081195
15.3679,1108828
15.3727,1040070
15.3774,1052610
15.3822,1082991
15.387,1089182
15.3917,1098021
15.3965,1042696
15.4012,1074643
15.406,1044105
15.4108,1089895
15.4155,1075666
15.4203,1067951
15.425,1002769
15.4298,1123633
15.4346,1057204
15.4393,1035936
15.4441,1079921
15.4489,1074971
15.4536,1095035
15.4584,1116014
15.4631,1130731
15.4679,1125276
15.4727,1114835
15.4774,1160193
15.4822,1179440
15.487,1145888
15.4917,1097340
15.4965,1099625
15.5012,1088629
15.506,1068617
15.5108,1096373
15.5155,1115404
15.5203,1180341
15.525,1285231
15.5298,1305832
15.5346,1311998
15.5393,1290877
15.5441,1212157
15.5489,1154383
15.5536,1178666
15.5584,1147434
15.5631,1168903
15.5679,1208822
15.5727,1146851
15.5774,1149853
15.5822,1154210
15.587,1118903
15.5917,1118314
15.5965,1116856
15.6012,1089661
15.606,1091371
15.6108,1075131
15.6155,1087347
15.6203,1078220
15.6251,1110301
15.6298,1116915
15.6346,1175680
15.6393,1127888
15.6441,1141863
15.6489,1106092
15.6536,1176915
15.6584,1117127
15.6631,1101039
15.6679,1157952
15.6727,1218392
15.6774,1338351
15.6822,1343344
15.687,1503317
15.6917,1471727
15.6965,1351072
15.7012,1280439
15.706,1219070
15.7108,1204287
15.7155,1226228
15.7203,1245359
15.7251,1501624
15.7298,2383608
15.7346,4585763
15.7393,9045886
15.7441,14875862
15.7489,18582346
15.7536,17627584
15.7584,13129358
15.7631,7943230
15.7679,4522319
15.7727,2718842
15.7774,1909128
15.7822,1649692
15.787,1513796
15.7917,1522543
15.7965,1500400
15.8012,1457998
15.806,1368529
15.8108,1391263
15.8155,1405679
15.8203,1401715
15.8251,1359081
15.8298,1397710
15.8346,1454275
15.8393,1560093
15.8441,1498818
15.8489,1504961
15.8536,1620588
15.8584,1608774
15.8631,1685641
15.8679,1653561
15.8727,1556799
15.8774,1478768
15.8822,1464967
15.887,1507433
15.8917,1469446
15.8965,1473313
15.9012,1433948
15.906,1430672
15.9108,1410620
15.9155,1406581
15.9203,1405094
15.9251,1392927
15.9298,1409473
15.9346,1414627
15.9393,1408612
15.9441,1395119
15.9489,1478021
15.9536,1439133
15.9584,1427822
15.9632,1432986
15.9679,1440398
15.9727,1509970
15.9774,1456368
15.9822,1504090
15.987,1457228
15.9917,1462144
15.9965,1416201
16.0012,1459309
16.006,1453416
16.0108,1483946
16.0155,1579061
16.0203,1768993
16.0251,1966033
16.0298,2011502
16.0346,1884878
16.0393,1700354
16.0441,1609693
16.0489,1532637
16.0536,1583238
16.0584,1518207
16.0632,1572133
16.0679,1553033
16.0727,1485288
16.0774,1491398
16.0822,1507117
16.087,1515145
16.0917,1505137
16.0965,1548722
16.1012,1572654
16.106,1545418
16.1108,1542988
16.1155,1576690
16.1203,1592556
16.1251,1570936
16.1298,1669383
16.1346,1600573
16.1393,1563087
16.1441,1553670
16.1489,1619500
16.1536,1625713
16.1584,1622101
16.1632,1554167
16.1679,1540931
16.1727,1587766
16.1774,1549971
16.1822,1613122
16.187,1604834
16.1917,1580385
16.1965,1596234
16.2012,1653829
16.206,1639697
16.2108,1642211
16.2155,1663581
16.2203,1677704
16.2251,1681210
16.2298,1716718
16.2346,1631126
16.2393,1664409
16.2441,1694048
16.2489,1637725
16.2536,1652459
16.2584,1717005
16.2632,1686347
16.2679,1671502
16.2727,1698107
16.2774,1685062
16.2822,1720688
16.287,1697055
16.2917,1738616
16.2965,1748302
16.3013,1677611
16.306,1693371
16.3108,1703886
16.3155,1724171
16.3203,1718713
16.3251,1763165
16.3298,1808118
16.3346,1784889
16.3393,1801555
16.3441,1781847
16.3489,1812651
16.3536,1813709
16.3584,1803797
16.3632,1885668
16.3679,2005527
16.3727,2130822
16.3774,2210882
16.3822,2148629
16.3869,1997646
16.3917,2001130
16.3965,1972612
16.4013,2114330
16.406,2348363
16.4108,2774441
16.4155,2895114
16.4203,2677602
16.425,2252506
16.4298,2022926
16.4346,1959921
16.4393,2043377
16.4441,2187657
16.4489,2553621
16.4536,3102563
16.4584,3434077
16.4631,3267320
16.4679,2831982
16.4727,2345853
16.4774,2114265
16.4822,2058765
16.487,2104670
16.4917,2075176
16.4965,2022424
16.5012,2067532
16.506,2074802
16.5108,2046080
16.5155,2060352
16.5203,2091865
16.5251,2049868
16.5298,2045979
16.5346,2069816
16.5393,2065603
16.5441,2105757
16.5489,2155775
16.5536,2089978
16.5584,2106559
16.5632,2196231
16.5679,2185857
16.5727,2098718
16.5774,2068538
16.5822,2098347
16.587,2189565
16.5917,2118342
16.5965,2161836
16.6013,2186331
16.606,2236108
16.6108,2277115
16.6155,2298537
16.6203,2303407
16.6251,2356367
16.6298,2224348
16.6346,2223054
16.6394,2252224
16.6441,2262440
16.6489,2247010
16.6536,2281426
16.6584,2316271
16.6632,2255328
16.6679,2335490
16.6727,2204961
16.6774,2303459
16.6822,2297946
16.687,2262172
16.6917,2249793
16.6965,2284522
16.7013,2335833
16.706,2275490
16.7108,2296444
16.7155,2271581
16.7203,2335038
16.7251,2298516
16.7298,2304219
16.7346,2359440
16.7394,2489346
16.7441,2360933
16.7489,2473389
16.7536,2409812
16.7584,2378004
16.7632,2368657
16.7679,2366116
16.7727,2338294
16.7774,2316629
16.7822,2319921
16.787,2426489
16.7917,2379326
16.7965,2366489
16.8013,2478229
16.806,2613641
16.8108,2515256
16.8155,2494149
16.8203,2493350
16.8251,2487325
16.8298,2529697
16.8346,2595962
16.8394,2520282
16.8441,2522848
16.8489,2508315
16.8536,2536502
16.8584,2639008
16.8632,2677612
16.8679,2595598
16.8727,2594552
16.8774,2588591
16.8822,2474705
16.887,2493205
16.8917,2459143
16.8965,2457931
16.9013,2422690
16.906,2456253
16.9108,2537274
16.9155,2597402
16.9203,2669916
16.9251,2687459
16.9298,2719362
16.9346,2637812
16.9394,2626962
16.9441,2520318
16.9489,2525918
16.9536,2471087
16.9584,2535795
16.9631,2542159
16.9679,2550360
16.9727,2553367
16.9775,2612520
16.9822,2647259
16.987,2588765
16.9917,2657363
16.9965,2617559
17.0012,2599043
17.006,2630049
17.0108,2700328
17.0155,2727924
17.0203,2788508
17.0251,2819958
17.0298,2712181
17.0346,2735286
17.0393,2679491
17.0441,2703566
17.0489,2698673
17.0536,2672756
17.0584,2653987
17.0632,2637483
17.0679,2705245
17.0727,2582239
17.0774,2618292
17.0822,2686363
17.087,2625862
17.0917,2639321
17.0965,2684276
17.1013,2679344
17.106,2607638
17.1108,2751118
17.1155,2844402
17.1203,2922257
17.1251,3189447
17.1298,3867012
17.1346,5554889
17.1394,8607185
17.1441,12027319
17.1489,11825208
17.1536,8421428
17.1584,5337968
17.1632,3944350
17.1679,3293910
17.1727,3077571
17.1775,2910970
17.1822,3012462
17.187,2866810
17.1917,2951364
17.1965,2925754
17.2013,2854845
17.206,2857665
17.2108,2736748
17.2155,2845169
17.2203,2832616
17.2251,2750999
17.2298,2811637
17.2346,2782291
17.2394,2791919
17.2441,2838561
17.2489,2729632
17.2536,2859023
17.2584,2782116
17.2632,2798584
17.2679,2794221
17.2727,2831022
17.2775,2889920
17.2822,2833165
17.287,2786312
17.2917,2907395
17.2965,2979214
17.3013,3632361
17.306,5366451
17.3108,9129284
17.3156,14255183
17.3203,15132394
17.3251,11780012
17.3298,7420709
17.3346,5007223
17.3394,3850652
17.3441,3447040
17.3489,3279837
17.3536,3060650
17.3584,3032717
17.3632,3028219
17.3679,2978475
17.3727,2939411
17.3775,2933681
17.3822,2939109
17.387,2962291
17.3917,2933211
17.3965,2871573
17.4013,2867201
17.406,2813951
17.4108,2881676
17.4156,2929685
17.4203,3021213
17.4251,2917846
17.4298,2900058
17.4346,2909692
17.4394,2898230
17.4441,2902545
17.4489,2939379
17.4536,3005072
17.4584,3017670
17.4632,3032174
17.4679,2950648
17.4727,2960307
17.4775,2961488
17.4822,2965582
17.487,2994421
17.4917,2989491
17.4965,2973128
17.5013,2974405
17.506,2876598
17.5108,2898384
17.5156,2928980
17.5203,2954384
17.5251,2937872
17.5298,2896101
17.5346,2873736
17.5394,2897357
17.5441,2918909
17.5489,2917879
17.5536,2873294
17.5584,2874944
17.5632,2941723
17.5679,2997429
17.5727,2962691
17.5775,2991989
17.5822,2990419
17.587,3001325
17.5917,3076291
17.5965,3040803
17.6013,3237020
17.606,3369204
17.6108,3454116
17.6156,3272804
17.6203,3205823
17.6251,3035032
17.6298,2996332
17.6346,3028637
17.6394,3177639
17.6441,3820664
17.6489,6488122
17.6537,13734930
17.6584,27944310
17.6632,44852880
17.6679,49482224
17.6727,39139680
17.6775,24248938
17.6822,13399670
17.687,8080290
17.6917,5859080
17.6965,4938892
17.7013,4379516
17.706,4059791
17.7108,3867350
17.7156,3835260
17.7203,3549525
17.7251,3549478
17.7298,3460980
17.7346,3336063
17.7394,3370811
17.7441,3330644
17.7489,3311495
17.7537,3291434
17.7584,3207023
17.7632,3274929
17.7679,3240685
17.7727,3508605
17.7775,3859273
17.7822,4229998
17.787,4621459
17.7917,4802151
17.7965,4362095
17.8013,3953563
17.806,3644058
17.8108,3422583
17.8156,3325151
17.8203,3252172
17.8251,3199737
17.8298,3156818
17.8346,3090714
17.8394,3089364
17.8441,3087917
17.8489,3076821
17.8537,3078870
17.8584,3109563
17.8632,3077614
17.8679,3119439
17.8727,3087814
17.8775,3115828
17.8822,3085314
17.887,3080410
17.8917,3074223
17.8965,3220507
17.9013,3161579
17.906,3235037
17.9108,3289809
17.9156,3387316
17.9203,3343654
17.9251,3471323
17.9298,3354220
17.9346,3336324
17.9394,3213094
17.9441,3133483
17.9489,3175843
17.9537,3094393
17.9584,3158559
17.9632,3147433
17.9679,3126594
17.9727,3143605
17.9775,3071723
17.9822,3136868
17.987,3126633
17.9918,3145343
17.9965,3067263
18.0013,3129284
18.006,3053891
18.0108,3011920
18.0156,3104407
18.0203,3064147
18.0251,3129605
18.0298,3044771
18.0346,3151110
18.0394,2998484
18.0441,3175446
18.0489,3157325
18.0537,3032330
18.0584,3148745
18.0632,3100085
18.0679,3134994
18.0727,3343347
18.0775,4161707
18.0822,6408879
18.087,11904691
18.0918,20945576
18.0965,29858442
18.1013,32376708
18.106,27120832
18.1108,18735442
18.1156,11718453
18.1203,7562910
18.1251,5638268
18.1298,4720593
18.1346,4167559
18.1394,4010175
18.1441,3925728
18.1489,4279908
18.1537,4645624
18.1584,5043757
18.1632,5230418
18.1679,4898266
18.1727,4442954
18.1775,3985093
18.1822,3674425
18.187,3502879
18.1918,3329983
18.1965,3307727
18.2013,3333316
18.206,3229003
18.2108,3328778
18.2156,3289392
18.2203,3176108
18.2251,3151612
18.2298,3175815
18.2346,3237650
18.2394,3191333
18.2441,3187244
18.2489,3184523
18.2537,3195827
18.2584,3214499
18.2632,3314036
18.2679,3436476
18.2727,4243836
18.2775,6458186
18.2822,11280799
18.287,19059438
18.2918,27239094
18.2965,29550488
18.3013,26058462
18.306,18929812
18.3108,12354537
18.3156,8105357
18.3203,6016781
18.3251,4874537
18.3299,4468608
18.3346,4068694
18.3394,3885930
18.3441,3703471
18.3489,3605491
18.3537,3538336
18.3584,3512098
18.3632,3455422
18.3679,3391880
18.3727,3370222
18.3775,3334789
18.3822,3309568
18.387,3327470
18.3918,3226952
18.3965,3283235
18.4013,3287914
18.406,3244102
18.4108,3227816
18.4156,3181545
18.4203,3151945
18.4251,3136038
18.4299,3200931
18.4346,3198636
18.4394,3192211
18.4441,3247137
18.4489,3156822
18.4537,3227155
18.4584,3103652
18.4632,3087435
18.4679,3153025
18.4727,3134550
18.4775,3080009
18.4822,3062140
18.487,3167877
18.4918,3174548
18.4965,3150273
18.5013,3056321
18.506,3132652
18.5108,3136104
18.5156,3228623
18.5203,3190891
18.5251,3168740
18.5299,3148803
18.5346,3130325
18.5394,3101688
18.5441,3133392
18.5489,3150295
18.5537,3113988
18.5584,3193006
18.5632,3104973
18.5679,3104895
18.5727,3131179
18.5775,3097613
18.5822,3110849
18.587,3081250
18.5918,3115819
18.5965,3008606
18.6013,3065649
18.606,3203052
18.6108,3092223
18.6156,3244560
18.6203,3254587
18.6251,3418911
18.6299,3379743
18.6346,3495837
18.6394,3484209
18.6441,3340134
18.6489,3261454
18.6537,3229680
18.6584,3186780
18.6632,3204544
18.668,3165877
18.6727,3362789
18.6775,3583740
18.6822,4399237
18.687,6104182
18.6918,9325531
18.6965,13883562
18.7013,19152678
18.706,21210432
18.7108,19977804
18.7156,16081222
18.7203,11568795
18.7251,8109042
18.7299,6037365
18.7346,4877859
18.7394,4306473
18.7441,3850877
18.7489,3767261
18.7537,3606361
18.7584,3500445
18.7632,3448249
18.768,3418562
18.7727,3271325
18.7775,3359379
18.7822,3244031
18.787,3185925
18.7918,3153951
18.7965,3184431
18.8013,3232608
18.806,3316985
18.8108,3205247
18.8156,3182589
18.8203,3212629
18.8251,3286625
18.8299,3331385
18.8346,3434056
18.8394,3633647
18.8441,3869011
18.8489,4035393
18.8537,4007680
18.8584,3991066
18.8632,3814800
18.868,3605062
18.8727,3494846
18.8775,3409639
18.8822,3251291
18.887,3307741
18.8918,3273879
18.8965,3211067
18.9013,3120489
18.906,3128794
18.9108,3146336
18.9156,3154372
18.9203,3143751
18.9251,3146425
18.9299,3203348
18.9346,3146082
18.9394,3122356
18.9441,3116724
18.9489,3095797
18.9537,3137684
18.9584,3203017
18.9632,3081718
18.968,3153447
18.9727,3132408
18.9775,3150194
18.9822,3046059
18.987,3110420
18.9918,3171384
18.9965,3116517
19.0013,3123221
19.0061,3212467
19.0108,3127079
19.0156,3101458
19.0203,3144722
19.0251,3086578
19.0299,3093274
19.0346,3093087
19.0394,3113547
19.0441,3148593
19.0489,3103212
19.0537,3185487
19.0584,3069068
19.0632,3138535
19.068,3102073
19.0727,3121520
19.0775,3039140
19.0822,3089429
19.087,3054186
19.0918,3160842
19.0965,3121437
19.1013,3089171
19.1061,3065928
19.1108,3121035
19.1156,3094767
19.1203,3067788
19.1251,3092226
19.1299,3076322
19.1346,3104226
19.1394,3072026
19.1441,2972704
19.1489,3132108
19.1537,3067741
19.1584,3106990
19.1632,3084894
19.168,3035620
19.1727,3110300
19.1775,3300677
19.1822,3079377
19.187,3063241
19.1918,3140086
19.1965,3156421
19.2013,3189099
19.2061,3444314
19.2108,3808412
19.2156,4380376
19.2203,5306195
19.2251,6399331
19.2299,7336416
19.2346,7547059
19.2394,7284064
19.2441,6496940
19.2489,5473868
19.2537,4654640
19.2584,4063227
19.2632,3638254
19.268,3438214
19.2727,3412640
19.2775,3257379
19.2822,3301137
19.287,3257155
19.2918,3308133
19.2965,3295730
19.3013,3364577
19.3061,3522947
19.3108,3567089
19.3156,3474339
19.3203,3439388
19.3251,3444028
19.3299,3290853
19.3346,3259081
19.3394,3185572
19.3442,3270176
19.3489,3175983
19.3537,3178612
19.3584,3066574
19.3632,3080015
19.368,3095758
19.3727,3099709
19.3775,3112642
19.3822,3023009
19.387,3103548
19.3918,3025916
19.3965,3152148
19.4013,3142926
19.4061,3052074
19.4108,3071925
19.4156,3118885
19.4203,3065549
19.4251,3057428
19.4299,3054211
19.4346,3090061
19.4394,3088371
19.4442,3165229
19.4489,3173388
19.4537,3444035
19.4584,3709767
19.4632,4334600
19.468,5340359
19.4727,6471185
19.4775,7590859
19.4822,8269200
19.487,8252708
19.4918,7328951
19.4965,6169574
19.5013,5213599
19.5061,4401310
19.5108,3913651
19.5156,3620485
19.5203,3506147
19.5251,3406065
19.5299,3258963
19.5346,3237811
19.5394,3197323
19.5442,3157733
19.5489,3132942
19.5537,3152368
19.5584,3152438
19.5632,3158930
19.568,3172517
19.5727,3146390
19.5775,3138976
19.5822,3125378
19.587,3108393
19.5918,3080163
19.5965,3046694
19.6013,3126618
19.6061,3086256
19.6108,2985001
19.6156,3076890
19.6203,3135906
19.6251,3115530
19.6299,3114417
19.6346,3070811
19.6394,3056569
19.6442,3111373
19.6489,2973234
19.6537,3009470
19.6584,3094369
19.6632,3065828
19.668,3089523
19.6727,3095015
19.6775,3025150
19.6823,3015362
19.687,3050802
19.6918,3047075
19.6965,3084607
19.7013,3025216
19.7061,3041269
19.7108,3015348
19.7156,3057090
19.7203,3058661
19.7251,3025192
19.7299,3062946
19.7346,3088024
19.7394,3095132
19.7442,3037696
19.7489,2987609
19.7537,3038036
19.7584,3071223
19.7632,3018903
19.768,3010297
19.7727,3073682
19.7775,2934719
19.7823,3041585
19.787,3038613
19.7918,3044412
19.7965,3038089
19.8013,3004410
19.8061,2999952
19.8108,3064945
19.8156,3012010
19.8203,3044221
19.8251,2965457
19.8299,2971886
19.8346,3133257
19.8394,2968586
19.8442,3033067
19.8489,3020219
19.8537,3036003
19.8584,3039434
19.8632,2984790
19.868,3069267
19.8727,2982030
19.8775,3064185
19.8823,3066463
19.887,2956035
19.8918,3068461
19.8965,3076255
19.9013,3040799
19.9061,3109042
19.9108,3054357
19.9156,3059178
19.9203,3086826
19.9251,3085993
19.9299,3039048
19.9346,3072801
19.9394,3042724
19.9442,2983274
19.9489,3048299
19.9537,2995430
19.9584,3008689
19.9632,3047798
19.968,3127873
19.9727,3031288
19.9775,3065857
19.9823,3110927
19.987,3145829
19.9918,3191907
19.9965,3329002
20.0013,3419962
20.0061,3591037
20.0108,3571700
20.0156,3599692
20.0203,3457858
20.0251,3426807
20.0299,3416534
20.0346,3201190
20.0394,3216895
20.0442,3141248
20.0489,3090507
20.0537,3142960
20.0584,3072070
20.0632,3100663
20.068,3098526
20.0727,3064491
20.0775,3005730
20.0823,3017420
20.087,2934405
20.0918,3088782
20.0965,3064805
20.1013,3052796
20.1061,3052212
20.1108,3042510
20.1156,3050294
20.1204,3062679
20.1251,2968914
20.1299,3202360
20.1346,3142156
20.1394,3095491
20.1442,2968862
20.1489,2999809
20.1537,2972693
20.1584,3051890
20.1632,3077490
20.168,3054844
20.1727,3027763
20.1775,3015574
20.1823,3041392
20.187,3051874
20.1918,3046641
20.1965,3124535
20.2013,3106102
20.2061,3122933
20.2108,3135213
20.2156,3053602
20.2204,3123117
20.2251,3015433
20.2299,3108401
20.2346,3023739
20.2394,2976623
20.2442,2933260
20.2489,3051665
20.2537,2918506
20.2584,3053925
20.2632,2936127
20.268,2984888
20.2727,3056066
20.2775,3020883
20.2823,3009709
20.287,3007046
20.2918,3024440
20.2965,3087948
20.3013,3069001
20.3061,3040865
20.3108,2993445
20.3156,2963479
20.3204,2954646
20.3251,3014149
20.3299,2989694
20.3346,3062034
20.3394,3012684
20.3442,2988471
20.3489,3017893
20.3537,3024575
20.3584,3075839
20.3632,2965167
20.368,3018242
20.3727,2985628
20.3775,3008512
20.3823,3048514
20.387,2986135
20.3918,2999118
20.3965,2975684
20.4013,3054163
20.4061,3021293
20.4108,3073033
20.4156,3021822
20.4204,3017593
20.4251,2984182
20.4299,3006659
20.4346,3038261
20.4394,3040060
20.4442,3003189
20.4489,3015886
20.4537,2942254
20.4585,3010683
20.4632,3070531
20.468,3008728
20.4727,3062577
20.4775,2991481
20.4823,2983336
20.487,2936689
20.4918,2946011
20.4965,3016266
20.5013,2925590
20.5061,2950114
20.5108,3047645
20.5156,2985008
20.5204,3041276
20.5251,3043328
20.5299,2987135
20.5346,3026187
20.5394,2959757
20.5442,2941789
20.5489,3016914
20.5537,2974691
20.5585,2978234
20.5632,2950147
20.568,2946572
20.5727,2969840
20.5775,2956856
20.5823,2939372
20.587,2917327
20.5918,2984808
20.5965,2991970
20.6013,3022477
20.6061,2953075
20.6108,3044585
20.6156,2977831
20.6204,3064791
20.6251,2977857
20.6299,2953561
20.6346,3003651
20.6394,2958778
20.6442,3009637
20.6489,2989480
20.6537,2929306
20.6585,2921654
20.6632,2844359
20.668,2989404
20.6727,2963604
20.6775,3016556
20.6823,2952838
20.687,3066946
20.6918,3031164
20.6965,3008759
20.7013,3085156
20.7061,3101043
20.7108,2961720
20.7156,3061915
20.7204,3088030
20.7251,3038478
20.7299,3025208
20.7346,2972649
20.7394,2988589
20.7442,3016588
20.7489,2977640
20.7537,2949232
20.7585,3031634
20.7632,2975187
20.768,3012103
20.7727,3032769
20.7775,3020238
20.7823,2969146
20.787,2934814
20.7918,3020452
20.7966,2945152
20.8013,2961027
20.8061,2967316
20.8108,2905073
20.8156,3042939
20.8204,2988911
20.8251,3021041
20.8299,2973857
20.8346,2967322
20.8394,2994237
20.8442,2955744
20.8489,2980012
20.8537,2964513
20.8585,2988304
20.8632,3036381
20.868,3006536
20.8727,2925257
20.8775,3047275
20.8823,2966111
20.887,2980438
20.8918,2951828
20.8966,2930926
20.9013,2966919
20.9061,2927214
20.9108,2968433
20.9156,2990701
20.9204,2900392
20.9251,2995614
20.9299,2941599
20.9346,2973502
20.9394,2895027
20.9442,2942876
20.9489,3010785
20.9537,3038873
20.9585,3001961
20.9632,2916565
20.968,2879988
20.9727,2931691
20.9775,2918141
20.9823,2970414
20.987,2952433
20.9918,2958411
20.9966,2937932
21.0013,2945823
21.0061,2979507
21.0108,3004351
21.0156,2902444
21.0204,2972291
21.0251,2992240
21.0299,3063734
21.0346,3001855
21.0394,3076379
21.0442,3131935
21.0489,3082705
21.0537,3080645
21.0585,3127068
21.0632,3021619
21.068,3063863
21.0727,3030146
21.0775,2987716
21.0823,2969131
21.087,3009837
21.0918,2939936
21.0966,2983570
21.1013,2991965
21.1061,3000186
21.1108,2937942
21.1156,2953782
21.1204,2880278
21.1251,2926431
21.1299,3001614
21.1347,2937351
21.1394,2938043
21.1442,2991368
21.1489,2921345
21.1537,3008993
21.1585,2955637
21.1632,2970031
21.168,2980039
21.1727,2914186
21.1775,2970742
21.1823,2956264
21.187,2906675
21.1918,2970966
21.1966,2909043
21.2013,2961108
21.2061,2958423
21.2108,2966732
21.2156,2939754
21.2204,2942098
21.2251,2973980
21.2299,2953055
21.2347,2893160
21.2394,2933801
21.2442,3028593
21.2489,2943462
21.2537,2979620
21.2585,2994157
21.2632,2943358
21.268,2935628
21.2727,2909162
21.2775,2972226
21.2823,2989493
21.287,3014174
21.2918,2933415
21.2966,2980016
21.3013,2992636
21.3061,2925865
21.3108,2920624
21.3156,2948868
21.3204,2993692
21.3251,2953126
21.3299,2935237
21.3347,2939275
21.3394,2994081
21.3442,2944931
21.3489,2906939
21.3537,2991300
21.3585,3050677
21.3632,2931681
21.368,2939045
21.3727,2953045
21.3775,3021235
21.3823,2887421
21.387,2958542
21.3918,2947146
21.3966,2982691
21.4013,2890739
21.4061,2969099
21.4108,2943871
21.4156,3000056
21.4204,2952653
21.4251,2937196
21.4299,2923870
21.4347,2920881
21.4394,2942681
21.4442,2941662
21.4489,2912978
21.4537,2944413
21.4585,2970061
21.4632,2912175
21.468,2945835
21.4728,2961287
21.4775,2879397
21.4823,2951850
21.487,2872251
21.4918,2946307
21.4966,2954520
