D:\DATA\HAMBERGER\NICK\20230701\20230701_6-7-23_NBenthi_07.D  2 Jul 23   6:39 am
Start of data points
4.0915,2908495
4.09625,2893669
4.10102,2851056
4.10578,2748614
4.11053,2867117
4.1153,2961827
4.12007,3075841
4.12483,2862074
4.12958,2751765
4.13435,2704041
4.13912,2633138
4.14387,2542505
4.14863,2535759
4.1534,2521186
4.15817,2483642
4.16292,2441848
4.16768,2464853
4.17245,2498202
4.1772,2473934
4.18197,2431303
4.18673,2422263
4.1915,2471599
4.19625,2339331
4.20102,2261899
4.20578,2277515
4.21055,2195444
4.2153,2170437
4.22007,2194376
4.22483,2124056
4.22958,2213403
4.23435,2326459
4.23912,2370763
4.24388,2336766
4.24863,2300682
4.2534,2386531
4.25817,2361424
4.26292,2189189
4.26768,2262502
4.27245,2378462
4.27722,2548224
4.28197,3317747
4.28673,3295146
4.2915,2641621
4.29625,2228246
4.30102,2047390
4.30578,2116318
4.31055,2071263
4.3153,2036705
4.32007,1964123
4.32483,1988864
4.32958,2019784
4.33435,2062723
4.33912,2043833
4.34388,1984774
4.34863,2049013
4.3534,2225875
4.35817,2322897
4.36292,2274166
4.36768,2201610
4.37245,2141029
4.37722,2104499
4.38197,2080116
4.38673,2034233
4.3915,1997611
4.39627,2084961
4.40102,2155072
4.40578,2236941
4.41055,2204971
4.4153,2134272
4.42007,2127174
4.42483,2085485
4.4296,2028787
4.43435,2012297
4.43912,1919906
4.44388,1964462
4.44863,1938591
4.4534,1865377
4.45817,1890320
4.46293,1844305
4.46768,1826834
4.47245,1943863
4.47722,1913818
4.48197,1954224
4.48673,1943651
4.4915,1991587
4.49627,2011222
4.50102,1935333
4.50578,1969158
4.51055,1876423
4.5153,1879035
4.52007,1787268
4.52483,1880765
4.5296,1816857
4.53435,1905172
4.53912,1965879
4.54388,1990387
4.54865,1981410
4.5534,2054276
4.55817,2106643
4.56293,2070464
4.56768,2045588
4.57245,2199854
4.57722,2469224
4.58198,2610108
4.58673,2720157
4.5915,2675448
4.59627,2246781
4.60102,1965438
4.60578,1802025
4.61055,1743084
4.61532,1699674
4.62007,1740400
4.62483,1719517
4.6296,1649771
4.63435,1689361
4.63912,1710295
4.64388,1643037
4.64865,1756012
4.6534,1776988
4.65817,1728244
4.66293,1741167
4.66768,1728587
4.67245,1783683
4.67722,1776705
4.68198,1740947
4.68673,1694076
4.6915,1622680
4.69627,1683225
4.70102,1618080
4.70578,1662543
4.71055,1685766
4.71532,1673570
4.72007,1605646
4.72483,1644229
4.7296,1669620
4.73437,1675494
4.73912,1609019
4.74388,1632432
4.74865,1616752
4.7534,1728593
4.75817,1801513
4.76293,1913888
4.7677,2018305
4.77245,2042373
4.77722,2053771
4.78198,2088917
4.78673,1991706
4.7915,2056346
4.79627,2002473
4.80103,2110768
4.80578,2071670
4.81055,2100395
4.81532,2070817
4.82007,2106384
4.82483,2035221
4.8296,2097121
4.83437,1994755
4.83912,1991653
4.84388,2006064
4.84865,2004162
4.8534,1984247
4.85817,1934845
4.86293,1961017
4.8677,1940396
4.87245,1923028
4.87722,1899081
4.88198,1899857
4.88673,1934608
4.8915,1908403
4.89627,1916677
4.90103,1836103
4.90578,1837821
4.91055,1770011
4.91532,1701495
4.92008,1759847
4.92483,1718176
4.9296,1744710
4.93437,1829441
4.93912,1787902
4.94388,1677595
4.94865,1650045
4.95342,1613605
4.95817,1631329
4.96293,1577351
4.9677,1611843
4.97245,1619208
4.97722,1571540
4.98198,1563627
4.98675,1589480
4.9915,1640141
4.99627,1567648
5.00103,1572360
5.00578,1550700
5.01055,1616100
5.01532,1647363
5.02008,1644623
5.02483,1652441
5.0296,1675259
5.03437,1639216
5.03912,1602268
5.04388,1635373
5.04865,1601238
5.05342,1632329
5.05817,1597594
5.06293,1598152
5.0677,1542722
5.07247,1536394
5.07722,1548388
5.08198,1597103
5.08675,1504016
5.0915,1498368
5.09627,1546707
5.10103,1471882
5.1058,1506415
5.11055,1451439
5.11532,1530629
5.12008,1501243
5.12483,1482254
5.1296,1555072
5.13437,1560223
5.13913,1593421
5.14388,1526201
5.14865,1588765
5.15342,1623192
5.15817,1683603
5.16293,1649629
5.1677,1661347
5.17247,1652654
5.17722,1707110
5.18198,1699521
5.18675,1720008
5.1915,1706621
5.19627,1716034
5.20103,1752598
5.2058,1805893
5.21055,1794474
5.21532,1915197
5.22008,1892461
5.22483,1884224
5.2296,1853034
5.23437,1839479
5.23913,1847725
5.24388,1903951
5.24865,1837383
5.25342,1820597
5.25818,2029386
5.26293,2322369
5.2677,2531448
5.27247,2310175
5.27722,2125423
5.28198,1949216
5.28675,1876376
5.29152,1767868
5.29627,1792715
5.30103,1761564
5.3058,1800053
5.31055,1779104
5.31532,1843294
5.32008,1776496
5.32485,1762497
5.3296,1819446
5.33437,1818639
5.33913,1760108
5.34388,1793907
5.34865,1793422
5.35342,1783825
5.35818,1738421
5.36293,1738359
5.3677,1657663
5.37247,1688814
5.37722,1694062
5.38198,1743936
5.38675,1685888
5.39152,1707917
5.39627,1728375
5.40103,1728079
5.4058,1672705
5.41057,1695313
5.41532,1701445
5.42008,1713124
5.42485,1769508
5.4296,1811010
5.43437,1752796
5.43913,1884729
5.4439,2027052
5.44865,2036571
5.45342,2036386
5.45818,2047175
5.46293,2008373
5.4677,2095149
5.47247,2102167
5.47723,2129889
5.48198,2170000
5.48675,2265482
5.49152,2046450
5.49627,2003799
5.50103,2090110
5.5058,2082296
5.51057,2031394
5.51532,1962647
5.52008,1926658
5.52485,1971566
5.5296,1915888
5.53437,1973447
5.53913,1892145
5.5439,1964853
5.54865,1948019
5.55342,1955870
5.55818,1955347
5.56293,1922147
5.5677,1859795
5.57247,1859666
5.57723,1896916
5.58198,1833963
5.58675,1858699
5.59152,1862004
5.59628,1833055
5.60103,1854689
5.6058,1825539
5.61057,1787105
5.61532,1815786
5.62008,1784014
5.62485,1800641
5.62962,1782303
5.63437,1815481
5.63913,1824936
5.6439,1760940
5.64865,1770048
5.65342,1755325
5.65818,1746740
5.66295,1655250
5.6677,1666337
5.67247,1689830
5.67723,1665719
5.68198,1680324
5.68675,1691712
5.69152,1638850
5.69628,1649009
5.70103,1643302
5.7058,1661066
5.71057,1587304
5.71532,1687685
5.72008,1695424
5.72485,1707538
5.72962,1723324
5.73437,1697666
5.73913,1675843
5.7439,1991205
5.74867,3596680
5.75342,5424101
5.75818,5888488
5.76295,5634186
5.7677,5474580
5.77247,5036234
5.77723,4754789
5.782,4441301
5.78675,4283106
5.79152,4182917
5.79628,4044545
5.80103,3780955
5.8058,3639292
5.81057,3563856
5.81533,3237255
5.82008,3100223
5.82485,2972683
5.82962,2990667
5.83437,2834627
5.83913,2751730
5.8439,2702797
5.84867,2584784
5.85342,2536483
5.85818,2453001
5.86295,2395741
5.8677,2350039
5.87247,2349221
5.87723,2355055
5.882,2337699
5.88675,2277657
5.89152,2244052
5.89628,2132159
5.90103,2146513
5.9058,2160166
5.91057,2128866
5.91533,2147536
5.92008,2126306
5.92485,2070956
5.92962,1977954
5.93438,1997758
5.93913,1884191
5.9439,1985188
5.94867,1887936
5.95342,1900462
5.95818,1967605
5.96295,2284979
5.96772,2581565
5.97247,2429017
5.97723,2171424
5.982,1968071
5.98675,1912456
5.99152,1792960
5.99628,1815587
6.00105,1784218
6.0058,1726204
6.01057,1758443
6.01533,1762053
6.02008,1782906
6.02485,1771548
6.02962,1789830
6.03438,1783469
6.03913,1721073
6.0439,1697122
6.04867,1690414
6.05342,1620818
6.05818,1610661
6.06295,1674152
6.06772,1693863
6.07247,1857200
6.07723,2104732
6.082,2334639
6.08675,2252607
6.09152,1968941
6.09628,1758608
6.10105,1632614
6.1058,1615438
6.11057,1530709
6.11533,1634277
6.1201,1571464
6.12485,1567488
6.12962,1508940
6.13438,1517308
6.13913,1523998
6.1439,1533416
6.14867,1555053
6.15343,1559647
6.15818,1486768
6.16295,1495181
6.16772,1398330
6.17247,1460470
6.17723,1508111
6.182,1434118
6.18677,1573015
6.19152,1502520
6.19628,1576725
6.20105,1643852
6.2058,1848760
6.21057,1879735
6.21533,1681770
6.2201,1586286
6.22485,1509931
6.22962,1531757
6.23438,1550257
6.23913,1471016
6.2439,1443692
6.24867,1436892
6.25343,1403478
6.25818,1437066
6.26295,1401249
6.26772,1403704
6.27248,1394009
6.27723,1446554
6.282,1483091
6.28677,1530000
6.29152,1539178
6.29628,1465461
6.30105,1470102
6.30582,1520419
6.31057,1477407
6.31533,1490746
6.3201,1430074
6.32485,1406421
6.32962,1409635
6.33438,1392566
6.33915,1375967
6.3439,1415735
6.34867,1332253
6.35343,1330092
6.35818,1431529
6.36295,1430308
6.36772,1452200
6.37248,1396929
6.37723,1389320
6.382,1366440
6.38677,1386831
6.39152,1373488
6.39628,1358220
6.40105,1331371
6.40582,1381822
6.41057,1385072
6.41533,1375756
6.4201,1316178
6.42485,1361261
6.42962,1345238
6.43438,1346996
6.43915,1317779
6.4439,1323223
6.44867,1311028
6.45343,1284877
6.4582,1299751
6.46295,1242639
6.46772,1285724
6.47248,1285134
6.47723,1262322
6.482,1262738
6.48677,1319974
6.49153,1367517
6.49628,1430915
6.50105,1439855
6.50582,1422957
6.51057,1392393
6.51533,1446608
6.5201,1424791
6.52487,1425574
6.52962,1435133
6.53438,1391001
6.53915,1350335
6.5439,1376012
6.54867,1309225
6.55343,1364064
6.5582,1329449
6.56295,1341190
6.56772,1459218
6.57248,1389343
6.57723,1385451
6.582,1369616
6.58677,1380187
6.59153,1376576
6.59628,1417640
6.60105,1376405
6.60582,1378418
6.61058,1368938
6.61533,1374967
6.6201,1333738
6.62487,1292165
6.62962,1318077
6.63438,1345265
6.63915,1384323
6.64392,1323102
6.64867,1292803
6.65343,1284318
6.6582,1365204
6.66295,1336819
6.66772,1286292
6.67248,1247125
6.67725,1310190
6.682,1257971
6.68677,1249235
6.69153,1250151
6.69628,1301906
6.70105,1292730
6.70582,1284045
6.71058,1301449
6.71533,1270457
6.7201,1293789
6.72487,1320903
6.72962,1263806
6.73438,1298924
6.73915,1308157
6.74392,1458091
6.74867,1611885
6.75343,1504039
6.7582,1452199
6.76295,1364234
6.76772,1332552
6.77248,1352127
6.77725,1316121
6.782,1276753
6.78677,1302000
6.79153,1436609
6.7963,1426448
6.80105,1427937
6.80582,1376144
6.81058,1360972
6.81533,1335283
6.8201,1279584
6.82487,1287639
6.82963,1476279
6.83438,1623692
6.83915,1883024
6.84392,1886480
6.84867,1648075
6.85343,1449198
6.8582,1283419
6.86297,1277732
6.86772,1334464
6.87248,1212095
6.87725,1226386
6.882,1180586
6.88677,1216043
6.89153,1201418
6.8963,1186768
6.90105,1142551
6.90582,1175007
6.91058,1170039
6.91533,1214214
6.9201,1160061
6.92487,1187690
6.92963,1189642
6.93438,1149533
6.93915,1132749
6.94392,1136985
6.94867,1138008
6.95343,1106879
6.9582,1134109
6.96297,1171339
6.96772,1150124
6.97248,1192144
6.97725,1149885
6.98202,1115127
6.98677,1162684
6.99153,1119440
6.9963,1131194
7.00105,1114164
7.00582,1079493
7.01058,1070933
7.01535,1097069
7.0201,1083180
7.02487,1105543
7.02963,1099007
7.03438,1129663
7.03915,1076897
7.04392,1039351
7.04868,1102412
7.05343,1093058
7.0582,1065524
7.06297,1112485
7.06772,1098226
7.07248,1115294
7.07725,1084893
7.08202,1070393
7.08677,1041892
7.09153,1059506
7.0963,1065793
7.10105,1012430
7.10582,1027473
7.11058,1035419
7.11535,1018136
7.1201,1026641
7.12487,1074119
7.12963,1040869
7.1344,1057880
7.13915,1041405
7.14392,1068407
7.14868,1004674
7.15343,1046398
7.1582,1075661
7.16297,1104859
7.16773,1103648
7.17248,1074115
7.17725,1080494
7.18202,1037484
7.18677,1116326
7.19153,1119753
7.1963,1065806
7.20107,1087931
7.20582,1033160
7.21058,1045896
7.21535,1035294
7.2201,1084824
7.22487,1097828
7.22963,1092973
7.2344,1001033
7.23915,1033546
7.24392,994480
7.24868,1024117
7.25343,981218
7.2582,1025236
7.26297,1018404
7.26773,1027028
7.27248,1015424
7.27725,977246
7.28202,1007409
7.28677,986877
7.29153,1003514
7.2963,1025885
7.30107,1027893
7.30582,999224
7.31058,1029367
7.31535,1021509
7.32012,1029545
7.32487,1004529
7.32963,987047
7.3344,982911
7.33915,987330
7.34392,1009809
7.34868,1027060
7.35345,984023
7.3582,963994
7.36297,990906
7.36773,980446
7.37248,1024463
7.37725,1023694
7.38202,1032259
7.38678,994940
7.39153,1021248
7.3963,1037597
7.40107,1008400
7.40582,974163
7.41058,981778
7.41535,981301
7.42012,1000108
7.42487,943617
7.42963,980794
7.4344,966165
7.43915,947284
7.44392,952895
7.44868,946992
7.45345,963585
7.4582,947305
7.46297,938737
7.46773,938724
7.4725,954186
7.47725,950439
7.48202,986555
7.48678,999008
7.49153,972155
7.4963,1001615
7.50107,984218
7.50583,989846
7.51058,1051659
7.51535,1016854
7.52012,1030888
7.52487,1077520
7.52963,1015588
7.5344,1051554
7.53917,964858
7.54392,947311
7.54868,990184
7.55345,983919
7.5582,958771
7.56297,961934
7.56773,1001334
7.5725,952341
7.57725,937952
7.58202,924097
7.58678,983957
7.59153,950773
7.5963,960807
7.60107,934594
7.60583,952766
7.61058,1005033
7.61535,903908
7.62012,901661
7.62487,928349
7.62963,940465
7.6344,933706
7.63917,916051
7.64392,928712
7.64868,931534
7.65345,909970
7.65822,930704
7.66297,902600
7.66773,930671
7.6725,899719
7.67725,911543
7.68202,873007
7.68678,903043
7.69155,923283
7.6963,926678
7.70107,964180
7.70583,917848
7.71058,906217
7.71535,937186
7.72012,911356
7.72488,911330
7.72963,951702
7.7344,909010
7.73917,915559
7.74392,922499
7.74868,932512
7.75345,938661
7.75822,964588
7.76297,973933
7.76773,978518
7.7725,1002955
7.77725,948755
7.78202,954744
7.78678,920750
7.79155,907150
7.7963,917200
7.80107,919836
7.80583,864738
7.81058,916477
7.81535,891253
7.82012,930326
7.82488,970220
7.82963,1013850
7.8344,1095504
7.83917,1077940
7.84393,1231547
7.84868,1469793
7.85345,1936738
7.85822,2454616
7.86297,2780405
7.86773,2881053
7.8725,2634268
7.87727,2181055
7.88202,1926011
7.88678,1581167
7.89155,1447331
7.8963,1348871
7.90107,1306012
7.90583,1268363
7.9106,1133978
7.91535,1144691
7.92012,1088475
7.92488,1078582
7.92963,1056600
7.9344,1052413
7.93917,1008202
7.94393,1013905
7.94868,982082
7.95345,985338
7.95822,981045
7.96297,991042
7.96773,994146
7.9725,1010232
7.97727,955348
7.98202,969688
7.98678,931523
7.99155,966021
7.99632,941523
8.00107,1078431
8.00583,1250598
8.0106,1472114
8.01535,1735941
8.02012,1814890
8.02488,1803490
8.02965,1716916
8.0344,1598536
8.03917,1431687
8.04393,1415590
8.04868,1309603
8.05345,1310697
8.05822,1322063
8.06298,1343169
8.06773,1359857
8.0725,1427610
8.07727,1522183
8.08202,1487913
8.08678,1417695
8.09155,1344237
8.09632,1248526
8.10107,1095988
8.10583,1013470
8.1106,978018
8.11535,995600
8.12012,998902
8.12488,974896
8.12965,973852
8.1344,908131
8.13917,917411
8.14393,883689
8.14868,852274
8.15345,866598
8.15822,912254
8.16298,898967
8.16773,904111
8.1725,861765
8.17727,915902
8.18203,884366
8.18678,909563
8.19155,848829
8.19632,876341
8.20107,882022
8.20583,882925
8.2106,872529
8.21537,885395
8.22012,847886
8.22488,875442
8.22965,876291
8.2344,863894
8.23917,840271
8.24393,853841
8.2487,840389
8.25345,892849
8.25822,866683
8.26298,860216
8.26773,818270
8.2725,825900
8.27727,822472
8.28203,837766
8.28678,847815
8.29155,835224
8.29632,887401
8.30107,824783
8.30583,854040
8.3106,822896
8.31537,898309
8.32012,878443
8.32488,852079
8.32965,886381
8.33442,936506
8.33917,941040
8.34393,950642
8.3487,901476
8.35345,945372
8.35822,904237
8.36298,892671
8.36775,945664
8.3725,921322
8.37727,886280
8.38203,851420
8.38678,903992
8.39155,894318
8.39632,882709
8.40108,885660
8.40583,864313
8.4106,881327
8.41537,885918
8.42012,835027
8.42488,819235
8.42965,822872
8.43442,810011
8.43917,794319
8.44393,809432
8.4487,796873
8.45345,802314
8.45822,796267
8.46298,820029
8.46775,826812
8.4725,836143
8.47727,831751
8.48203,831532
8.48678,773861
8.49155,772014
8.49632,809773
8.50108,752694
8.50583,781636
8.5106,792825
8.51537,814437
8.52013,817131
8.52488,781198
8.52965,783114
8.53442,811600
8.53917,770997
8.54393,752906
8.5487,792594
8.55347,781945
8.55822,768348
8.56298,785608
8.56775,814594
8.5725,745664
8.57727,796715
8.58203,793168
8.5868,783868
8.59155,800292
8.59632,780923
8.60108,801476
8.60583,833287
8.6106,812499
8.61537,837075
8.62013,808479
8.62488,840356
8.62965,804992
8.63442,805562
8.63917,790927
8.64393,812564
8.6487,794121
8.65347,792469
8.65822,799035
8.66298,848960
8.66775,828916
8.6725,876285
8.67727,888891
8.68203,851211
8.6868,843040
8.69155,841456
8.69632,824176
8.70108,792154
8.70585,798778
8.7106,812347
8.71537,786966
8.72013,789438
8.72488,763841
8.72965,784531
8.73442,739435
8.73918,774498
8.74393,762211
8.7487,785990
8.75347,769115
8.75822,929278
8.76298,782396
8.76775,760104
8.77252,760663
8.77727,742703
8.78203,760211
8.7868,760442
8.79155,753768
8.79632,779190
8.80108,746598
8.80585,773563
8.8106,739532
8.81537,756849
8.82013,752489
8.82488,786156
8.82965,798820
8.83442,788592
8.83918,841402
8.84393,784483
8.8487,813063
8.85347,759708
8.85823,769142
8.86298,790119
8.86775,771431
8.87252,765367
8.87727,759044
8.88203,748099
8.8868,766833
8.89157,765737
8.89632,791904
8.90108,741288
8.90585,757507
8.9106,814306
8.91537,877391
8.92013,790370
8.9249,796200
8.92965,781742
8.93442,821887
8.93918,796831
8.94393,813032
8.9487,770120
8.95347,800913
8.95823,807074
8.96298,796608
8.96775,884908
8.97252,960226
8.97727,1048334
8.98203,1173960
8.9868,1258156
8.99157,1239776
8.99632,1244679
9.00108,1168622
9.00585,1066332
9.0106,943739
9.01537,913300
9.02013,847504
9.0249,789896
9.02965,795612
9.03442,796479
9.03918,786069
9.04395,783737
9.0487,755842
9.05347,751730
9.05823,747599
9.06298,752336
9.06775,739279
9.07252,740596
9.07728,778218
9.08203,823826
9.0868,854594
9.09157,900415
9.09632,1002441
9.10108,1162133
9.10585,1176624
9.11062,1221496
9.11537,1229850
9.12013,1142195
9.1249,1081086
9.12965,1014088
9.13442,930540
9.13918,865676
9.14395,808020
9.1487,794549
9.15347,759352
9.15823,742599
9.16298,726544
9.16775,737823
9.17252,747583
9.17728,738469
9.18203,762271
9.1868,731795
9.19157,762699
9.19633,738215
9.20108,724404
9.20585,716054
9.21062,703906
9.21537,758459
9.22013,725926
9.2249,688305
9.22967,737363
9.23442,762269
9.23918,762282
9.24395,733093
9.2487,709463
9.25347,750717
9.25823,769179
9.263,780175
9.26775,747505
9.27252,771177
9.27728,705548
9.28203,745021
9.2868,719376
9.29157,743382
9.29633,708388
9.30108,742283
9.30585,734593
9.31062,761624
9.31537,782914
9.32013,772233
9.3249,806390
9.32967,828541
9.33442,810733
9.33918,849608
9.34395,800263
9.3487,800571
9.35347,768304
9.35823,800481
9.363,764443
9.36775,737013
9.37252,739957
9.37728,717408
9.38205,726302
9.3868,691674
9.39157,673774
9.39633,692055
9.40108,712641
9.40585,706780
9.41062,677405
9.41538,719602
9.42013,735696
9.4249,691919
9.42967,716075
9.43442,733374
9.43918,674872
9.44395,736192
9.44872,681220
9.45347,703448
9.45823,706286
9.463,721103
9.46775,683452
9.47252,734894
9.47728,732685
9.48205,703105
9.4868,681446
9.49157,675453
9.49633,680390
9.50108,689015
9.50585,690601
9.51062,679616
9.51538,660897
9.52013,707467
9.5249,684825
9.52967,665571
9.53442,718289
9.53918,714530
9.54395,734853
9.54872,718397
9.55347,710455
9.55823,711913
9.563,721919
9.56777,679059
9.57252,692486
9.57728,740114
9.58205,728535
9.5868,731243
9.59157,748025
9.59633,790457
9.6011,851533
9.60585,833425
9.61062,875794
9.61538,880605
9.62013,846599
9.6249,821146
9.62967,794346
9.63443,765803
9.63918,723366
9.64395,728539
9.64872,677236
9.65347,687597
9.65823,676106
9.663,684097
9.66777,667337
9.67252,706464
9.67728,656098
9.68205,671714
9.6868,699152
9.69157,700816
9.69633,673183
9.7011,716246
9.70585,667363
9.71062,687325
9.71538,655748
9.72015,702818
9.7249,672164
9.72967,654388
9.73443,691723
9.73918,647846
9.74395,691299
9.74872,709662
9.75348,693286
9.75823,693183
9.763,690916
9.76777,717269
9.77252,730646
9.77728,707699
9.78205,693338
9.78682,732611
9.79157,725501
9.79633,658780
9.8011,722622
9.80585,728854
9.81062,726414
9.81538,759440
9.82015,770290
9.8249,860972
9.82967,867200
9.83443,883434
9.83918,828889
9.84395,786948
9.84872,769898
9.85348,746579
9.85823,717047
9.863,719635
9.86777,685818
9.87252,681607
9.87728,651138
9.88205,669268
9.88682,678719
9.89157,667979
9.89633,681978
9.9011,687488
9.90587,683451
9.91062,694867
9.91538,718241
9.92015,733858
9.9249,815327
9.92967,846462
9.93443,877849
9.9392,884602
9.94395,928103
9.94872,981375
9.95348,977042
9.95823,1019279
9.963,1021886
9.96777,1028081
9.97253,915720
9.97728,878659
9.98205,846606
9.98682,772799
9.99157,789579
9.99633,757740
10.0011,774624
10.0059,784233
10.0106,759730
10.0154,784968
10.0202,797412
10.0249,775619
10.0297,806358
10.0344,735925
10.0392,732818
10.044,740030
10.0487,729620
10.0535,709244
10.0583,728552
10.063,706751
10.0678,708339
10.0725,698783
10.0773,707097
10.0821,729666
10.0868,688948
10.0916,761625
10.0963,749057
10.1011,755103
10.1059,748599
10.1106,757402
10.1154,764571
10.1202,723833
10.1249,728108
10.1297,763399
10.1344,753308
10.1392,829072
10.144,793123
10.1487,795669
10.1535,803574
10.1583,726974
10.163,763624
10.1678,747630
10.1725,712579
10.1773,714632
10.1821,730105
10.1868,753273
10.1916,765780
10.1963,731838
10.2011,724829
10.2059,753695
10.2106,748931
10.2154,760523
10.2202,763115
10.2249,803158
10.2297,754367
10.2344,791659
10.2392,755767
10.244,688344
10.2487,687853
10.2535,673747
10.2583,688380
10.263,652040
10.2678,651542
10.2725,668014
10.2773,693323
10.2821,683332
10.2868,695463
10.2916,679433
10.2963,691659
10.3011,704492
10.3059,703574
10.3106,702973
10.3154,693533
10.3202,724840
10.3249,710153
10.3297,725076
10.3344,727416
10.3392,684773
10.344,728340
10.3487,673391
10.3535,708559
10.3583,720077
10.363,690712
10.3678,684160
10.3725,657456
10.3773,684238
10.3821,687982
10.3868,703429
10.3916,700613
10.3963,685720
10.4011,731149
10.4059,674446
10.4106,659301
10.4154,727480
10.4202,713063
10.4249,685496
10.4297,676486
10.4344,688073
10.4392,677585
10.444,656906
10.4487,678651
10.4535,693376
10.4583,674643
10.463,704636
10.4678,664021
10.4725,691775
10.4773,687967
10.4821,742839
10.4868,708209
10.4916,709399
10.4964,732811
10.5011,705432
10.5059,893906
10.5106,716590
10.5154,764986
10.5202,824754
10.5249,821491
10.5297,881995
10.5344,1004332
10.5392,1029179
10.544,1016517
10.5487,962374
10.5535,872717
10.5583,819785
10.563,795398
10.5678,804644
10.5725,761715
10.5773,726448
10.5821,716885
10.5868,747002
10.5916,724356
10.5964,709086
10.6011,722808
10.6059,750122
10.6106,715015
10.6154,742484
10.6202,673480
10.6249,710093
10.6297,723989
10.6344,701004
10.6392,694176
10.644,723685
10.6487,738717
10.6535,873284
10.6583,938000
10.663,1051576
10.6678,1043480
10.6725,1051489
10.6773,1072701
10.6821,1000382
10.6868,1006746
10.6916,957690
10.6964,985575
10.7011,943406
10.7059,967366
10.7106,927870
10.7154,940284
10.7202,921085
10.7249,890204
10.7297,876729
10.7344,846901
10.7392,867210
10.744,979989
10.7487,1342408
10.7535,2313747
10.7583,3811269
10.763,6334027
10.7678,9411290
10.7725,11357497
10.7773,11055257
10.7821,9689146
10.7868,6970999
10.7916,4360698
10.7964,2618582
10.8011,1709059
10.8059,1329397
10.8106,1189340
10.8154,1159007
10.8202,1176627
10.8249,1229539
10.8297,1325023
10.8345,1592522
10.8392,2013558
10.844,2429412
10.8487,2456404
10.8535,2379808
10.8583,2216614
10.863,1875010
10.8678,1701258
10.8725,1563455
10.8773,1537749
10.8821,1476493
10.8868,1390277
10.8916,1341443
10.8964,1254941
10.9011,1182846
10.9059,1175402
10.9106,1191933
10.9154,1238348
10.9202,1354023
10.9249,1444772
10.9297,1666139
10.9345,1888117
10.9392,2379343
10.944,3190112
10.9487,4307446
10.9535,6160272
10.9583,7527164
10.963,8122319
10.9678,7913238
10.9725,6686759
10.9773,5004411
10.9821,3613967
10.9868,3330753
10.9916,4767348
10.9964,8866138
11.0011,16225491
11.0059,24941402
11.0106,30978238
11.0154,30726472
11.0202,23702880
11.0249,14981104
11.0297,8589568
11.0345,5015574
11.0392,3255612
11.044,2348346
11.0487,1965541
11.0535,1750182
11.0583,1703809
11.063,1602262
11.0678,1584201
11.0725,1614062
11.0773,1692166
11.0821,1780761
11.0868,1935417
11.0916,2101371
11.0964,2555701
11.1011,3416822
11.1059,4154909
11.1106,4438012
11.1154,4425150
11.1202,3613276
11.1249,2751418
11.1297,2166424
11.1345,1701138
11.1392,1556938
11.144,1455775
11.1487,1409678
11.1535,1329607
11.1583,1374063
11.163,1387620
11.1678,1416242
11.1726,1425410
11.1773,1578534
11.1821,1610028
11.1868,1859340
11.1916,1991567
11.1964,2034315
11.2011,2006250
11.2059,1845297
11.2106,1697673
11.2154,1497509
11.2202,1425284
11.2249,1341046
11.2297,1329730
11.2345,1423974
11.2392,1403150
11.244,1478191
11.2487,1477474
11.2535,1484858
11.2583,1499819
11.263,1448042
11.2678,1431118
11.2726,1383509
11.2773,1372528
11.2821,1303063
11.2868,1320012
11.2916,1309591
11.2964,1300664
11.3011,1250759
11.3059,1222461
11.3106,1238271
11.3154,1217431
11.3202,1199250
11.3249,1261959
11.3297,1207413
11.3345,1208339
11.3392,1174088
11.344,1231086
11.3487,1242774
11.3535,1178211
11.3583,1211019
11.363,1220198
11.3678,1196585
11.3726,1177537
11.3773,1211454
11.3821,1196372
11.3868,1198326
11.3916,1234362
11.3964,1260685
11.4011,1228911
11.4059,1265454
11.4106,1278205
11.4154,1376431
11.4202,1528376
11.4249,1589405
11.4297,1651447
11.4345,1718772
11.4392,1608818
11.444,1512098
11.4487,1387813
11.4535,1273314
11.4583,1231228
11.463,1261481
11.4678,1230067
11.4726,1283702
11.4773,1355409
11.4821,1364037
11.4868,1534426
11.4916,1622038
11.4964,1692246
11.5011,1689297
11.5059,1647444
11.5107,1510095
11.5154,1406936
11.5202,1303231
11.5249,1297045
11.5297,1258638
11.5345,1208193
11.5392,1252627
11.544,1313270
11.5487,1345799
11.5535,1270243
11.5583,1294511
11.563,1281031
11.5678,1211004
11.5726,1267215
11.5773,1439859
11.5821,1841011
11.5868,2526427
11.5916,3374067
11.5964,4207942
11.6011,4984511
11.6059,5066452
11.6107,5136538
11.6154,4779133
11.6202,4077167
11.6249,3334544
11.6297,2525354
11.6345,1972969
11.6392,1695147
11.644,1682214
11.6487,2112831
11.6535,3085750
11.6583,4668086
11.663,6427122
11.6678,7795622
11.6726,7902533
11.6773,6792730
11.6821,5131134
11.6868,4073296
11.6916,3971501
11.6964,4678041
11.7011,5178307
11.7059,5047572
11.7107,3933080
11.7154,2884209
11.7202,2166585
11.7249,1865872
11.7297,1791828
11.7345,1713720
11.7392,1732668
11.744,1780357
11.7487,1869449
11.7535,1898200
11.7583,1971245
11.763,1924562
11.7678,1937262
11.7726,1936082
11.7773,1863545
11.7821,2027260
11.7868,1911533
11.7916,1894388
11.7964,2029527
11.8011,2109178
11.8059,2176494
11.8107,2222277
11.8154,2289134
11.8202,2256775
11.8249,2264165
11.8297,2486880
11.8345,2441530
11.8392,2510989
11.844,2484962
11.8488,2593855
11.8535,2574407
11.8583,2572108
11.863,2662155
11.8678,2667015
11.8726,2811167
11.8773,2824297
11.8821,2820678
11.8868,2868935
11.8916,2801743
11.8964,2807959
11.9011,2943132
11.9059,3131570
11.9107,3542651
11.9154,4539917
11.9202,6066649
11.9249,7212045
11.9297,7178866
11.9345,6374141
11.9392,5106745
11.944,4308179
11.9488,3829863
11.9535,3624452
11.9583,3840162
11.963,4341146
11.9678,6020795
11.9726,9046372
11.9773,12773502
11.9821,13999594
11.9868,13887881
11.9916,11298945
11.9964,8117589
12.0011,5953754
12.0059,4539661
12.0107,3841521
12.0154,3207395
12.0202,2813585
12.0249,2387486
12.0297,2311661
12.0345,2082391
12.0392,2132698
12.044,2037412
12.0488,2009921
12.0535,2036942
12.0583,2028126
12.063,2008145
12.0678,2062518
12.0726,2089971
12.0773,2027662
12.0821,1998505
12.0868,1919511
12.0916,1929299
12.0964,1966454
12.1011,1941236
12.1059,1821216
12.1107,1882452
12.1154,1816581
12.1202,1839730
12.1249,1804402
12.1297,1864379
12.1345,1834905
12.1392,1877494
12.144,1848675
12.1488,1778853
12.1535,1783678
12.1583,1723245
12.163,1695526
12.1678,1683499
12.1726,1694580
12.1773,1722381
12.1821,1666287
12.1869,1730408
12.1916,1736737
12.1964,1769353
12.2011,1743327
12.2059,1803439
12.2107,1714934
12.2154,1746213
12.2202,1697459
12.2249,1724428
12.2297,1752914
12.2345,1731511
12.2392,1718168
12.244,1693940
12.2488,1778797
12.2535,1697319
12.2583,1694497
12.263,1682227
12.2678,1599294
12.2726,1636489
12.2773,1691866
12.2821,1606723
12.2869,1643101
12.2916,1666108
12.2964,1612833
12.3011,1688534
12.3059,1820784
12.3107,1865656
12.3154,1960268
12.3202,2046489
12.3249,2118549
12.3297,2100000
12.3345,2117068
12.3392,2091905
12.344,2069367
12.3488,2096142
12.3535,2024296
12.3583,2008817
12.363,1902386
12.3678,1909612
12.3726,1987980
12.3773,2051794
12.3821,2076346
12.3869,2152509
12.3916,2110464
12.3964,2159370
12.4011,2245964
12.4059,2546448
12.4107,2639481
12.4154,2651951
12.4202,2522838
12.4249,2237302
12.4297,2118406
12.4345,2039640
12.4392,2047660
12.444,2068121
12.4488,2174397
12.4535,2205876
12.4583,2157863
12.463,2153313
12.4678,2012245
12.4726,1893307
12.4773,1875769
12.4821,1781036
12.4869,1722043
12.4916,1787293
12.4964,1728696
12.5011,1703458
12.5059,1723328
12.5107,1713146
12.5154,1736005
12.5202,1745761
12.525,1665244
12.5297,1715916
12.5345,1765683
12.5392,1768013
12.544,1795725
12.5488,1813442
12.5535,1799144
12.5583,1715949
12.563,1758779
12.5678,1733498
12.5726,1783485
12.5773,1817410
12.5821,1848657
12.5869,1968313
12.5916,2057696
12.5964,2078237
12.6011,2096809
12.6059,1944020
12.6107,1838318
12.6154,1734515
12.6202,1668837
12.625,1661602
12.6297,1729876
12.6345,1655520
12.6392,1649621
12.644,1641228
12.6488,1577829
12.6535,1523603
12.6583,1564819
12.663,1642771
12.6678,1621347
12.6726,1749437
12.6773,1812752
12.6821,2006032
12.6869,2148964
12.6916,2267267
12.6964,2177004
12.7011,2079162
12.7059,1961920
12.7107,1879175
12.7154,1825817
12.7202,1751742
12.725,1711377
12.7297,1670026
12.7345,1654769
12.7392,1669102
12.744,1579307
12.7488,1629608
12.7535,1604835
12.7583,1674740
12.763,1748242
12.7678,1913751
12.7726,1944949
12.7773,2028627
12.7821,1991699
12.7869,1912752
12.7916,1779103
12.7964,1796290
12.8011,1694943
12.8059,1634643
12.8107,1636630
12.8154,1620733
12.8202,1604656
12.825,1541861
12.8297,1666532
12.8345,1594287
12.8392,1573232
12.844,1603992
12.8488,1509596
12.8535,1517974
12.8583,1486634
12.8631,1544637
12.8678,1535858
12.8726,1515409
12.8773,1512123
12.8821,1513128
12.8869,1525294
12.8916,1536363
12.8964,1597225
12.9011,1615716
12.9059,1632510
12.9107,1679593
12.9154,1673183
12.9202,1658185
12.925,1607081
12.9297,1571057
12.9345,1696303
12.9392,1749581
12.944,1828014
12.9488,1874920
12.9535,1958801
12.9583,1889621
12.9631,1750359
12.9678,1656796
12.9726,1589455
12.9773,1675290
12.9821,1660488
12.9869,1741207
12.9916,1837033
12.9964,2136213
13.0011,2318572
13.0059,2341244
13.0107,2384233
13.0154,2215592
13.0202,2004108
13.025,1834454
13.0297,1665041
13.0345,1646121
13.0392,1543205
13.044,1535183
13.0488,1543891
13.0535,1510740
13.0583,1558949
13.0631,1620129
13.0678,1607091
13.0726,1600303
13.0773,1647137
13.0821,1655951
13.0869,1635444
13.0916,1630579
13.0964,1623984
13.1011,1635269
13.1059,1535336
13.1107,1615080
13.1154,1537093
13.1202,1627200
13.125,1662998
13.1297,1647530
13.1345,1615503
13.1392,1695124
13.144,1880529
13.1488,2320901
13.1535,2993972
13.1583,3912560
13.1631,4638580
13.1678,4790115
13.1726,4276927
13.1773,3518775
13.1821,2883865
13.1869,2497397
13.1916,2750535
13.1964,3382430
13.2012,4298996
13.2059,5007599
13.2107,4984759
13.2154,4396265
13.2202,3464024
13.225,2667166
13.2297,2034396
13.2345,1837123
13.2392,1705592
13.244,1714223
13.2488,1681855
13.2535,1662908
13.2583,1610156
13.2631,1635218
13.2678,1581828
13.2726,1601793
13.2773,1646396
13.2821,1572479
13.2869,1539516
13.2916,1603405
13.2964,1554223
13.3012,1611014
13.3059,1588749
13.3107,1593221
13.3154,1597560
13.3202,1579477
13.325,1661991
13.3297,1690670
13.3345,1689714
13.3392,1650397
13.344,1674989
13.3488,1659648
13.3535,1650442
13.3583,1661944
13.3631,1748051
13.3678,1680902
13.3726,1636493
13.3773,1710148
13.3821,1714890
13.3869,1710363
13.3916,1645658
13.3964,1703242
13.4012,1756873
13.4059,1953577
13.4107,2571569
13.4154,3516916
13.4202,4898452
13.425,6589888
13.4297,7820639
13.4345,7947819
13.4392,7111620
13.444,5589265
13.4488,4083033
13.4535,3254926
13.4583,2845773
13.4631,2891137
13.4678,3069111
13.4726,3095773
13.4773,2906800
13.4821,2577905
13.4869,2264758
13.4916,2066770
13.4964,1929335
13.5012,1858879
13.5059,1785627
13.5107,1744534
13.5154,1765775
13.5202,1691433
13.525,1682218
13.5297,1658220
13.5345,1732085
13.5393,1670751
13.544,1656342
13.5488,1716251
13.5535,1661726
13.5583,1696733
13.5631,1641567
13.5678,1626795
13.5726,1714565
13.5773,1719552
13.5821,1694813
13.5869,1723116
13.5916,1827571
13.5964,1896126
13.6012,2002885
13.6059,2085878
13.6107,1975920
13.6154,2012479
13.6202,1970246
13.625,1872077
13.6297,1822459
13.6345,1804916
13.6393,1844347
13.644,1799889
13.6488,1876649
13.6535,1837670
13.6583,1838693
13.6631,1762011
13.6678,1800050
13.6726,1779287
13.6773,1708224
13.6821,1711076
13.6869,1781358
13.6916,1860961
13.6964,1870227
13.7012,1866109
13.7059,1867465
13.7107,1856996
13.7154,1847072
13.7202,1781878
13.725,1891070
13.7297,1907783
13.7345,1926329
13.7393,1936406
13.744,1926277
13.7488,1946744
13.7535,2025231
13.7583,2124848
13.7631,2296825
13.7678,2269526
13.7726,2256927
13.7773,2060058
13.7821,2006949
13.7869,1920556
13.7916,1859721
13.7964,1885986
13.8012,1818829
13.8059,1893694
13.8107,1885999
13.8154,1834386
13.8202,1826104
13.825,1877499
13.8297,1926958
13.8345,1817600
13.8393,1887573
13.844,1871152
13.8488,1928411
13.8535,1966529
13.8583,1934198
13.8631,1973919
13.8678,1973707
13.8726,2009638
13.8774,2065863
13.8821,2346415
13.8869,3032601
13.8916,4303289
13.8964,6125254
13.9012,7616075
13.9059,8271123
13.9107,7052366
13.9154,5432062
13.9202,3925661
13.925,2972285
13.9297,2619685
13.9345,2350275
13.9393,2199406
13.944,2221133
13.9488,2265812
13.9535,2300322
13.9583,2356447
13.9631,2325148
13.9678,2385092
13.9726,2379447
13.9774,2401403
13.9821,2392151
13.9869,2279000
13.9916,2188320
13.9964,2054526
14.0012,2104104
14.0059,2168851
14.0107,2218250
14.0154,2266265
14.0202,2337156
14.025,2284339
14.0297,2339046
14.0345,2323241
14.0393,2322049
14.044,2177223
14.0488,2207662
14.0535,2160839
14.0583,2127427
14.0631,2211335
14.0678,2186456
14.0726,2187052
14.0774,2194717
14.0821,2231773
14.0869,2243368
14.0916,2236124
14.0964,2253266
14.1012,2245330
14.1059,2315066
14.1107,2349126
14.1154,2350006
14.1202,2457817
14.125,2575552
14.1297,2689047
14.1345,2956606
14.1393,3496643
14.144,4014847
14.1488,4504819
14.1535,4506173
14.1583,4124248
14.1631,3647734
14.1678,3172929
14.1726,2932730
14.1774,2855601
14.1821,2794803
14.1869,2809489
14.1916,2805325
14.1964,2914105
14.2012,2997949
14.2059,2981538
14.2107,3093585
14.2155,3135707
14.2202,3584761
14.225,4612079
14.2297,6194537
14.2345,7733303
14.2393,8527308
14.244,8030115
14.2488,6620598
14.2535,5136495
14.2583,4288001
14.2631,3812759
14.2678,3563423
14.2726,3582726
14.2774,3624830
14.2821,3507576
14.2869,3568548
14.2916,3550168
14.2964,3686452
14.3012,3723089
14.3059,3757118
14.3107,3860533
14.3155,3867198
14.3202,3870825
14.325,3938077
14.3297,4058460
14.3345,4070152
14.3393,4010157
14.344,4112395
14.3488,4233126
14.3535,4170994
14.3583,4147593
14.3631,4224680
14.3678,4297022
14.3726,4325442
14.3774,4421801
14.3821,4460715
14.3869,4509203
14.3916,4430024
14.3964,4529217
14.4012,4691463
14.4059,4710672
14.4107,4931081
14.4155,5065548
14.4202,5435172
14.425,5514940
14.4297,5491409
14.4345,5504117
14.4393,5361255
14.444,5334121
14.4488,5153005
14.4535,5151371
14.4583,5128026
14.4631,5085039
14.4678,5191763
14.4726,5442120
14.4774,5875954
14.4821,6935017
14.4869,7865608
14.4916,8756226
14.4964,8923920
14.5012,8216731
14.5059,7129448
14.5107,6255270
14.5155,5832627
14.5202,5436614
14.525,5539407
14.5297,5551232
14.5345,5567029
14.5393,5364181
14.544,5303646
14.5488,5172170
14.5536,5177791
14.5583,5132763
14.5631,5168932
14.5678,5203334
14.5726,5100517
14.5774,5043731
14.5821,5066681
14.5869,5016623
14.5916,4952461
14.5964,5176709
14.6012,5102551
14.6059,5149271
14.6107,5215343
14.6155,5187427
14.6202,5074813
14.625,5066702
14.6297,5079604
14.6345,5091158
14.6393,5039838
14.644,4909196
14.6488,4930423
14.6536,4943368
14.6583,4956324
14.6631,4939117
14.6678,4952385
14.6726,4863206
14.6774,4940641
14.6821,4876789
14.6869,4853633
14.6916,4826960
14.6964,4806088
14.7012,4837607
14.7059,4858904
14.7107,4811890
14.7155,4844636
14.7202,4837903
14.725,4906764
14.7297,4823119
14.7345,4803253
14.7393,4756056
14.744,4839288
14.7488,4883730
14.7536,4943064
14.7583,4985237
14.7631,4999117
14.7678,4889077
14.7726,4868768
14.7774,4795898
14.7821,4643577
14.7869,4536390
14.7916,4518590
14.7964,4538824
14.8012,4627753
14.8059,4588794
14.8107,4584268
14.8155,4451186
14.8202,4525504
14.825,4391304
14.8297,4491230
14.8345,4517195
14.8393,4429842
14.844,4401885
14.8488,4356343
14.8536,4265954
14.8583,4272396
14.8631,4203244
14.8678,4357853
14.8726,4327811
14.8774,4267279
14.8821,4242042
14.8869,4180433
14.8917,4221337
14.8964,4244321
14.9012,4141816
14.9059,4139597
14.9107,4121769
14.9155,4188713
14.9202,4091833
14.925,4082753
14.9297,3974204
14.9345,3993951
14.9393,4072283
14.944,3983408
14.9488,3988530
14.9536,4027821
14.9583,3887885
14.9631,4052309
14.9678,3812787
14.9726,3973431
14.9774,3963940
14.9821,3908558
14.9869,4018057
14.9917,3873736
14.9964,3939650
15.0012,3873700
15.0059,3894984
15.0107,3836799
15.0155,3776182
15.0202,3774912
15.025,3704649
15.0297,3700537
15.0345,3788345
15.0393,3712348
15.044,3770077
15.0488,3821438
15.0536,3769785
15.0583,3757543
15.0631,3712437
15.0678,3709747
15.0726,3704778
15.0774,3794019
15.0821,3716912
15.0869,3659561
15.0917,3684336
15.0964,3585145
15.1012,3621183
15.1059,3579183
15.1107,3606151
15.1155,3584737
15.1202,3410018
15.125,3499622
15.1297,3406330
15.1345,3414461
15.1393,3289574
15.144,3395545
15.1488,3277456
15.1536,3389019
15.1583,3301630
15.1631,3307848
15.1678,3322867
15.1726,3266075
15.1774,3368843
15.1821,3422081
15.1869,3367521
15.1917,3424796
15.1964,3549762
15.2012,3585390
15.2059,3615364
15.2107,3421456
15.2155,3343461
15.2202,3232758
15.225,3332815
15.2298,3187999
15.2345,3227779
15.2393,3174610
15.244,3254378
15.2488,3152006
15.2536,3245181
15.2583,3168758
15.2631,3150969
15.2678,3117627
15.2726,3155815
15.2774,3050723
15.2821,3085137
15.2869,2958191
15.2917,3041217
15.2964,3023745
15.3012,3027910
15.3059,2940644
15.3107,2920226
15.3155,2935939
15.3202,2885556
15.325,2873227
15.3298,2996668
15.3345,2882295
15.3393,2938361
15.344,2892103
15.3488,2850972
15.3536,2904240
15.3583,2820687
15.3631,2912599
15.3678,2818011
15.3726,2859693
15.3774,2925678
15.3821,2925183
15.3869,2923021
15.3917,2903434
15.3964,2930231
15.4012,2989629
15.4059,3010065
15.4107,3096140
15.4155,3021108
15.4202,2935753
15.425,2853050
15.4298,2767317
15.4345,2839473
15.4393,2823936
15.444,2857601
15.4488,2655523
15.4536,2777267
15.4583,2746337
15.4631,2718352
15.4678,2701804
15.4726,2743457
15.4774,2665916
15.4821,2671264
15.4869,2616747
15.4917,2660258
15.4964,2650270
15.5012,2575714
15.5059,2571018
15.5107,2695629
15.5155,2662186
15.5202,2730958
15.525,2970699
15.5298,3193962
15.5345,3293983
15.5393,3367431
15.544,3347120
15.5488,3256570
15.5536,3063251
15.5583,2855774
15.5631,2750860
15.5678,2643321
15.5726,2642000
15.5774,2632780
15.5821,2494094
15.5869,2544402
15.5917,2554304
15.5964,2516659
15.6012,2520633
15.6059,2420207
15.6107,2487088
15.6155,2542372
15.6202,2453366
15.625,2502809
15.6298,2430092
15.6345,2459610
15.6393,2418211
15.644,2475726
15.6488,2415065
15.6536,2420069
15.6583,2414148
15.6631,2493867
15.6679,2437620
15.6726,2482149
15.6774,2565663
15.6821,2689827
15.6869,2777393
15.6917,2866058
15.6964,2789717
15.7012,2641722
15.7059,2571193
15.7107,2493296
15.7155,2432529
15.7202,2522764
15.725,2653445
15.7298,2882609
15.7345,2972926
15.7393,2913438
15.744,2783242
15.7488,2622384
15.7536,2514667
15.7583,2576578
15.7631,2433909
15.7679,2362963
15.7726,2394944
15.7774,2418781
15.7821,2298988
15.7869,2368236
15.7917,2339773
15.7964,2352323
15.8012,2324183
15.8059,2378318
15.8107,2338365
15.8155,2352484
15.8202,2358216
15.825,2336708
15.8298,2301650
15.8345,2321173
15.8393,2447317
15.844,2409042
15.8488,2356027
15.8536,2376719
15.8583,2351594
15.8631,2403500
15.8679,2451838
15.8726,2519014
15.8774,2558390
15.8821,2625027
15.8869,2639250
15.8917,2591797
15.8964,2579809
15.9012,2487912
15.9059,2437413
15.9107,2353254
15.9155,2385704
15.9202,2371730
15.925,2296641
15.9298,2308199
15.9345,2348103
15.9393,2302618
15.944,2341755
15.9488,2320375
15.9536,2325468
15.9583,2381527
15.9631,2370261
15.9679,2412586
15.9726,2352964
15.9774,2338721
15.9821,2381739
15.9869,2355830
15.9917,2385352
15.9964,2370493
16.0012,2325242
16.0059,2309054
16.0107,2291924
16.0155,2361925
16.0202,2400140
16.025,2544594
16.0298,2586055
16.0345,2638109
16.0393,2518837
16.044,2442320
16.0488,2416617
16.0536,2303732
16.0583,2328625
16.0631,2280420
16.0679,2347400
16.0726,2313416
16.0774,2365981
16.0821,2293278
16.0869,2323515
16.0917,2352131
16.0964,2379167
16.1012,2345439
16.106,2301981
16.1107,2416131
16.1155,2340523
16.1202,2345254
16.125,2373150
16.1298,2379967
16.1345,2476009
16.1393,2411314
16.144,2371203
16.1488,2298794
16.1536,2356174
16.1583,2362695
16.1631,2326553
16.1679,2369553
16.1726,2357612
16.1774,2376911
16.1821,2392948
16.1869,2396320
16.1917,2369036
16.1964,2382936
16.2012,2445708
16.206,2419952
16.2107,2467844
16.2155,2480159
16.2202,2397188
16.225,2527399
16.2297,2478267
16.2345,2515352
16.2393,2449816
16.244,2473114
16.2488,2419382
16.2536,2458889
16.2583,2482553
16.2631,2397707
16.2678,2386205
16.2726,2458596
16.2774,2434272
16.2821,2425461
16.2869,2462070
16.2917,2427360
16.2964,2506555
16.3012,2509810
16.3059,2525039
16.3107,2496947
16.3155,2492050
16.3202,2536286
16.325,2492474
16.3298,2510602
16.3345,2505577
16.3393,2467425
16.344,2533266
16.3488,2525438
16.3536,2518531
16.3583,2643325
16.3631,2599386
16.3679,2757087
16.3726,2914408
16.3774,3014138
16.3821,2957869
16.3869,2832294
16.3917,2777634
16.3964,2698284
16.4012,2931480
16.406,3819930
16.4107,5791910
16.4155,7612364
16.4202,7513268
16.425,5333051
16.4297,3731113
16.4345,3141221
16.4393,2862110
16.4441,2915145
16.4488,2845804
16.4536,2815423
16.4583,2916117
16.4631,2924457
16.4678,3012350
16.4726,2993242
16.4774,2883910
16.4821,2941351
16.4869,2815303
16.4917,2778464
16.4964,2824319
16.5012,2864618
16.5059,2843232
16.5107,2841157
16.5155,2808743
16.5202,2810394
16.525,2882707
16.5298,2863433
16.5345,2956076
16.5393,2900295
16.544,2931982
16.5488,2911604
16.5536,2963359
16.5583,3021793
16.5631,2934155
16.5679,2937479
16.5726,3007741
16.5774,2950509
16.5821,2923749
16.5869,3010229
16.5917,2937260
16.5964,2966588
16.6012,2976279
16.606,3077061
16.6107,3094121
16.6155,3141185
16.6202,3157215
16.625,3075870
16.6298,3131770
16.6345,3075592
16.6393,3084708
16.6441,3088477
16.6488,3047436
16.6536,3069174
16.6583,3173370
16.6631,3236805
16.6679,3174024
16.6726,3213102
16.6774,3233780
16.6822,3183605
16.6869,3186542
16.6917,3207785
16.6964,3213580
16.7012,3194564
16.706,3240217
16.7107,3174109
16.7155,3175561
16.7202,3213208
16.725,3257774
16.7298,3310698
16.7345,3260443
16.7393,3450976
16.7441,3492837
16.7488,3607508
16.7536,3535740
16.7583,3337336
16.7631,3377277
16.7678,3273624
16.7726,3303564
16.7774,3384260
16.7822,3390261
16.7869,3531630
16.7917,3430635
16.7964,3473452
16.8012,3444443
16.8059,3321717
16.8107,3451918
16.8155,3458643
16.8202,3643483
16.825,3680891
16.8298,3666812
16.8345,3718463
16.8393,3816265
16.844,3970710
16.8488,4008263
16.8536,4352123
16.8583,4774632
16.8631,5346931
16.8679,5536954
16.8726,5418182
16.8774,4984431
16.8821,4887250
16.8869,4937525
16.8917,4934199
16.8964,4891341
16.9012,4945393
16.906,5206537
16.9107,5359543
16.9155,5620337
16.9202,5744369
16.925,5769807
16.9298,5813832
16.9345,5807324
16.9393,5724698
16.9441,5637046
16.9488,5738007
16.9536,5841296
16.9583,6058991
16.9631,6187775
16.9679,6191737
16.9726,6231304
16.9774,7033326
16.9822,8088061
16.9869,9145920
16.9917,9551955
16.9964,8639088
17.0012,7844200
17.0059,7699343
17.0107,8508005
17.0155,10770900
17.0203,12433321
17.025,12031452
17.0298,10107012
17.0345,8409833
17.0393,7639096
17.044,7131043
17.0488,7048749
17.0536,6847131
17.0583,6892073
17.0631,6865867
17.0679,7008319
17.0726,6949201
17.0774,7168741
17.0821,7108985
17.0869,6992976
17.0917,7070126
17.0964,6987119
17.1012,6988704
17.106,6972511
17.1107,7017978
17.1155,6921747
17.1202,6989270
17.125,7321813
17.1298,8855734
17.1345,15373181
17.1393,30481364
17.1441,49648188
17.1488,57494032
17.1536,45892008
17.1583,28586740
17.1631,16623874
17.1679,11353485
17.1726,9354996
17.1774,8572975
17.1822,8220066
17.1869,8237272
17.1917,8221421
17.1964,8174401
17.2012,8137412
17.206,7987087
17.2107,7604255
17.2155,7283008
17.2203,7061468
17.225,7150216
17.2298,7126148
17.2345,7067799
17.2393,6910863
17.2441,7052662
17.2488,6902357
17.2536,6901376
17.2583,6879021
17.2631,6942318
17.2679,6845592
17.2726,6906292
17.2774,6892493
17.2822,6895163
17.2869,6801625
17.2917,6732360
17.2964,7190981
17.3012,9096805
17.306,16102704
17.3107,31777464
17.3155,53700268
17.3203,65301252
17.325,56712428
17.3298,37542744
17.3345,22048902
17.3393,13946868
17.344,10474199
17.3488,9116378
17.3536,8433348
17.3584,8015727
17.3631,7681185
17.3679,7442981
17.3726,7428155
17.3774,7295491
17.3821,7031764
17.3869,7130718
17.3917,6924673
17.3964,6978077
17.4012,6834292
17.406,6853426
17.4107,6755974
17.4155,6699302
17.4202,6800010
17.425,6774540
17.4298,6770990
17.4345,6781273
17.4393,6798781
17.4441,6600158
17.4488,6752344
17.4536,6738391
17.4583,6660212
17.4631,6723491
17.4679,6717192
17.4726,6596621
17.4774,6682164
17.4822,6668640
17.4869,6597642
17.4917,6477962
17.4964,6550922
17.5012,6700543
17.506,6723430
17.5107,6635343
17.5155,6505034
17.5203,6501603
17.525,6468945
17.5298,6507553
17.5345,6696449
17.5393,6758375
17.5441,6667005
17.5488,6541898
17.5536,6477994
17.5584,6483045
17.5631,6431494
17.5679,6385612
17.5726,6360175
17.5774,6509729
17.5822,6468473
17.5869,6427526
17.5917,6579556
17.5964,7011504
17.6012,7926623
17.606,9211127
17.6107,10157709
17.6155,9894364
17.6203,8931801
17.625,7637467
17.6298,6951602
17.6345,6689332
17.6393,6683784
17.6441,7687553
17.6488,12698546
17.6536,32682574
17.6584,76909792
17.6631,127962976
17.6679,164599616
17.6726,164712464
17.6774,126704368
17.6822,74382728
17.6869,36713904
17.6917,20673440
17.6965,14686154
17.7012,11999175
17.706,10431082
17.7107,9623646
17.7155,9004438
17.7203,8502405
17.725,8126912
17.7298,7704668
17.7345,7479077
17.7393,7208332
17.7441,7063734
17.7488,7104416
17.7536,7292246
17.7584,7583283
17.7631,7958854
17.7679,8211280
17.7726,8641799
17.7774,10097396
17.7822,12956492
17.7869,17216046
17.7917,20197988
17.7965,19493078
17.8012,16112412
17.806,12630072
17.8107,10290055
17.8155,9091162
17.8203,8687870
17.825,8467294
17.8298,8290147
17.8345,8282107
17.8393,8225177
17.8441,8223934
17.8488,7977945
17.8536,8072763
17.8584,8084446
17.8631,8138115
17.8679,7965689
17.8726,8063944
17.8774,7999035
17.8822,8013106
17.8869,7947620
17.8917,8061323
17.8965,7941483
17.9012,8136644
17.906,8805583
17.9107,10350653
17.9155,13253926
17.9202,16289883
17.925,17934790
17.9298,16317227
17.9345,13513088
17.9393,11171947
17.9441,9978703
17.9488,9536235
17.9536,9765431
17.9583,9814782
17.9631,9661925
17.9679,9301596
17.9726,8831915
17.9774,8477150
17.9822,8122983
17.9869,8076710
17.9917,8112538
17.9964,8001251
18.0012,8039952
18.006,7976070
18.0107,7873473
18.0155,7838540
18.0203,7965840
18.025,7872599
18.0298,7693538
18.0345,7742963
18.0393,7821729
18.0441,7714503
18.0488,7710719
18.0536,7766844
18.0584,7815311
18.0631,7804269
18.0679,7988173
18.0726,8158721
18.0774,9684511
18.0822,15784317
18.0869,35723072
18.0917,78783208
18.0965,130580968
18.1012,172084544
18.106,195428048
18.1107,186027792
18.1155,144704064
18.1203,90432112
18.125,46914716
18.1298,27280784
18.1346,19679098
18.1393,16191253
18.1441,14727351
18.1488,15522574
18.1536,18350930
18.1584,22860076
18.1631,26756504
18.1679,26900448
18.1726,22949160
18.1774,17969926
18.1822,14251137
18.1869,11814688
18.1917,10470428
18.1965,9706183
18.2012,9206932
18.206,8982893
18.2107,8893682
18.2155,8643841
18.2203,8538458
18.225,8276414
18.2298,8261067
18.2346,8284114
18.2393,8075234
18.2441,7877579
18.2488,7994934
18.2536,7927296
18.2584,8003731
18.2631,8083112
18.2679,8385491
18.2726,10164694
18.2774,15951805
18.2822,32778174
18.2869,68441560
18.2917,111709848
18.2965,149425632
18.3012,166348288
18.306,158063808
18.3107,129148016
18.3155,83740008
18.3203,46058184
18.325,27364022
18.3298,19544818
18.3346,15890597
18.3393,13700590
18.3441,12483117
18.3488,11468718
18.3536,10873580
18.3584,10236198
18.3631,9785735
18.3679,9465378
18.3727,9084005
18.3774,8960489
18.3822,8564504
18.3869,8535573
18.3917,8297610
18.3965,8070883
18.4012,7980031
18.406,7781453
18.4107,7706939
18.4155,7677402
18.4203,7629680
18.425,7541288
18.4298,7423978
18.4346,7175862
18.4393,7372149
18.4441,7324590
18.4488,7228257
18.4536,7204896
18.4583,7088185
18.4631,7101687
18.4679,7011012
18.4727,6999542
18.4774,7007801
18.4822,6855360
18.4869,6846533
18.4917,6928692
18.4964,6812693
18.5012,6792359
18.506,6653398
18.5107,6751533
18.5155,6723289
18.5203,6658830
18.525,6572875
18.5298,6642489
18.5345,6560114
18.5393,6529078
18.5441,6472991
18.5488,6495350
18.5536,6539619
18.5584,6450516
18.5631,6403206
18.5679,6594051
18.5726,6421370
18.5774,6382823
18.5822,6363666
18.5869,6316858
18.5917,6415231
18.5965,6262470
18.6012,6406091
18.606,6440514
18.6107,6522141
18.6155,6775871
18.6203,7180549
18.625,8281805
18.6298,9713839
18.6346,10972259
18.6393,11365165
18.6441,10477018
18.6488,9284041
18.6536,8285698
18.6584,7395547
18.6631,6910547
18.6679,6707176
18.6727,6770025
18.6774,7069748
18.6822,8893909
18.6869,13828974
18.6917,26464302
18.6965,48787124
18.7012,79656560
18.706,104791848
18.7108,118907144
18.7155,114863328
18.7203,95330344
18.725,66088196
18.7298,39767848
18.7346,24511028
18.7393,16763002
18.7441,13196763
18.7488,11244955
18.7536,10315203
18.7584,9467824
18.7631,8970240
18.7679,8419694
18.7727,7976101
18.7774,7705662
18.7822,7465379
18.7869,7276217
18.7917,7093454
18.7965,6937795
18.8012,6888163
18.806,6768088
18.8108,6625951
18.8155,6607593
18.8203,6561729
18.825,6598302
18.8298,6978286
18.8346,7911125
18.8393,10070317
18.8441,13253919
18.8488,17196832
18.8536,20298132
18.8584,20913052
18.8631,18291878
18.8679,14742503
18.8727,11337610
18.8774,9127295
18.8822,7897268
18.8869,7124863
18.8917,6725077
18.8965,6577419
18.9012,6475856
18.906,6402930
18.9108,6174012
18.9155,6097540
18.9203,6095455
18.925,5978985
18.9298,6006637
18.9346,5940815
18.9393,5856465
18.9441,5881836
18.9488,5804370
18.9536,5735685
18.9584,5798923
18.9631,5798742
18.9679,5754149
18.9727,5600600
18.9774,5766809
18.9822,5643873
18.9869,5530128
18.9917,5641318
18.9965,5652591
19.0012,5608461
19.006,5594615
19.0108,5667321
19.0155,5629440
19.0203,5624942
19.025,5657191
19.0298,5500114
19.0345,5420833
19.0393,5445099
19.0441,5515784
19.0489,5545164
19.0536,5389584
19.0584,5415052
19.0631,5382288
19.0679,5334030
19.0726,5257326
19.0774,5238934
19.0822,5259601
19.0869,5344573
19.0917,5288135
19.0965,5258818
19.1012,5165753
19.106,5185038
19.1107,5257331
19.1155,5163315
19.1203,5178179
19.125,5141051
19.1298,5159347
19.1346,5154813
19.1393,5145102
19.1441,5099358
19.1488,5043226
19.1536,5040884
19.1584,4987063
19.1631,5022848
19.1679,5061311
19.1727,5020498
19.1774,4998749
19.1822,5072931
19.1869,5037201
19.1917,5250672
19.1965,5311479
19.2012,5562536
19.206,6243056
19.2108,8082514
19.2155,12390061
19.2203,20768758
19.225,35528296
19.2298,52494180
19.2346,66523212
19.2393,73809928
19.2441,69630896
19.2489,56190452
19.2536,40766892
19.2584,27154670
19.2631,17793322
19.2679,12995318
19.2727,10308045
19.2774,8915246
19.2822,8101911
19.2869,7697257
19.2917,7474884
19.2965,7645709
19.3012,8282153
19.306,9267547
19.3108,10949940
19.3155,12313787
19.3203,12780440
19.325,12204633
19.3298,10591460
19.3346,9048013
19.3393,7821964
19.3441,6898469
19.3489,6415654
19.3536,6111495
19.3584,5803907
19.3631,5578744
19.3679,5503847
19.3727,5463768
19.3774,5411503
19.3822,5270423
19.387,5279957
19.3917,5222187
19.3965,5114756
19.4012,5095054
19.406,5081087
19.4108,5142176
19.4155,5000215
19.4203,5023350
19.425,5069554
19.4298,5065075
19.4346,5042340
19.4393,5009363
19.4441,5245263
19.4489,5469946
19.4536,6452153
19.4584,8353415
19.4631,12701934
19.4679,21303758
19.4727,34306996
19.4774,52148196
19.4822,68366024
19.487,80385816
19.4917,83790312
19.4965,74017264
19.5012,57509760
19.506,40156740
19.5108,27099590
19.5155,18711664
19.5203,13841973
19.525,11034457
19.5298,9579302
19.5346,8684645
19.5393,8143308
19.5441,7681244
19.5489,7277455
19.5536,6997219
19.5584,6680360
19.5631,6471917
19.5679,6282573
19.5727,6153289
19.5774,5977472
19.5822,5719781
19.587,5608940
19.5917,5576929
19.5965,5526466
19.6012,5355847
19.606,5389224
19.6107,5380650
19.6155,5284067
19.6203,5191514
19.625,5203003
19.6298,5147761
19.6346,5070405
19.6393,4969987
19.6441,4956993
19.6488,5012788
19.6536,4924119
19.6584,4867241
19.6631,4814221
19.6679,4770998
19.6727,4819374
19.6774,4796849
19.6822,4775804
19.687,4864030
19.6917,4772465
19.6965,4843584
19.7012,4708951
19.706,4652632
19.7108,4666873
19.7155,4819743
19.7203,4699611
19.7251,4769994
19.7298,4710761
19.7346,4691970
19.7393,4728971
19.7441,4651445
19.7489,4557411
19.7536,4628016
19.7584,4638590
19.7631,4624783
19.7679,4524406
19.7727,4570566
19.7774,4506237
19.7822,4577464
19.787,4548874
19.7917,4458484
19.7965,4493506
19.8012,4410464
19.806,4607346
19.8108,4409560
19.8155,4452737
19.8203,4471411
19.8251,4429948
19.8298,4477689
19.8346,4432120
19.8393,4431153
19.8441,4364551
19.8489,4396720
19.8536,4395014
19.8584,4441854
19.8631,4461326
19.8679,4408606
19.8727,4393876
19.8774,4459267
19.8822,4453671
19.887,4467176
19.8917,4502273
19.8965,4591632
19.9012,4599055
19.906,4786220
19.9108,4838201
19.9155,4959265
19.9203,5086295
19.9251,5026754
19.9298,4940535
19.9346,4830800
19.9393,4757446
19.9441,4673558
19.9489,4512132
19.9536,4598481
19.9584,4559091
19.9631,4436154
19.9679,4547237
19.9727,4674381
19.9774,4734255
19.9822,4831035
19.987,5077052
19.9917,5384907
19.9965,6011145
20.0012,6807255
20.006,7713262
20.0108,9068544
20.0155,9915993
20.0203,10369703
20.0251,10017471
20.0298,9205069
20.0346,7984544
20.0393,6970279
20.0441,5986528
20.0489,5493741
20.0536,5146176
20.0584,4809511
20.0632,4662831
20.0679,4533188
20.0727,4554384
20.0774,4542447
20.0822,4510451
20.087,4361444
20.0917,4421085
20.0965,4411180
20.1012,4310296
20.106,4343215
20.1108,4355022
20.1155,4343238
20.1203,4292500
20.1251,4298836
20.1298,4264129
20.1346,4304860
20.1393,4245532
20.1441,4346693
20.1488,4264744
20.1536,4339612
20.1584,4310718
20.1632,4160604
20.1679,4197335
20.1727,4336402
20.1774,4324049
20.1822,4477143
20.187,4637936
20.1917,4735996
20.1965,5108141
20.2012,5259368
20.206,5466582
20.2108,5451781
20.2155,5519996
20.2203,5325410
20.2251,4989632
20.2298,4889315
20.2346,4751354
20.2393,4445570
20.2441,4380827
20.2489,4348045
20.2536,4296301
20.2584,4267319
20.2632,4300402
20.2679,4181849
20.2727,4334442
20.2774,4219013
20.2822,4210372
20.287,4148644
20.2917,4181054
20.2965,4205484
20.3012,4176530
20.306,4108137
20.3108,4185241
20.3155,4174380
20.3203,4123368
20.3251,4144587
20.3298,4171942
20.3346,4135704
20.3393,4114880
20.3441,4230559
20.3489,4158906
20.3536,4102253
20.3584,4141951
20.3632,4085130
20.3679,4117492
20.3727,4116465
20.3774,4135450
20.3822,4182720
20.387,4051567
20.3917,4133629
20.3965,4154461
20.4013,4137046
20.406,4081303
20.4108,4175779
20.4155,4104456
20.4203,4175101
20.4251,4163335
20.4298,4251455
20.4346,4090845
20.4393,4124934
20.4441,4082871
20.4489,4087597
20.4536,4086722
20.4584,4127224
20.4632,4128117
20.4679,4073007
20.4727,4168349
20.4774,4078657
20.4822,4055884
20.487,4123954
20.4917,4079524
20.4965,4156396
20.5013,4138408
20.506,4159945
20.5108,3997271
20.5155,4012874
20.5203,3982324
20.5251,4039599
20.5298,4132881
20.5346,4031397
20.5393,4053758
20.5441,4079374
20.5489,4057373
20.5536,4003762
20.5584,3966947
20.5632,3925327
20.5679,4058413
20.5727,4020965
20.5774,4061277
20.5822,3988069
20.587,3988294
20.5917,3931099
20.5965,4019951
20.6013,3981652
20.606,4034376
20.6108,4085497
20.6155,4003604
20.6203,3977832
20.6251,3954097
20.6298,4069563
20.6346,3996034
20.6393,4035706
20.6441,3966692
20.6489,4044493
20.6536,4014116
20.6584,4042203
20.6632,4025157
20.6679,4009337
20.6727,4046783
20.6774,4240184
20.6822,4256261
20.687,4330660
20.6917,4458716
20.6965,4554411
20.7013,4839451
20.706,4947408
20.7108,5106030
20.7155,5118535
20.7203,5086455
20.7251,5008053
20.7298,4767175
20.7346,4646425
20.7394,4583244
20.7441,4355497
20.7489,4221164
20.7536,4227446
20.7584,4177827
20.7632,4229299
20.7679,4155423
20.7727,4039305
20.7774,4102380
20.7822,4009049
20.787,4015871
20.7917,4030422
20.7965,4161562
20.8013,4151776
20.806,4014037
20.8108,4204125
20.8155,4242008
20.8203,4156429
20.8251,4263508
20.8298,4131750
20.8346,4145160
20.8394,4129557
20.8441,4104957
20.8489,4072953
20.8536,4075226
20.8584,3818544
20.8632,3984582
20.8679,3917020
20.8727,4005533
20.8774,3982491
20.8822,3995052
20.887,3988855
20.8917,3955575
20.8965,3950060
20.9013,3928243
20.906,3914805
20.9108,3966795
20.9155,3935456
20.9203,3942668
20.9251,3914090
20.9298,3941767
20.9346,3931309
20.9394,3945284
20.9441,3990072
20.9489,3904413
20.9536,3877788
20.9584,3967090
20.9632,3958403
20.9679,3918939
20.9727,3959519
20.9774,3926665
20.9822,3929979
20.987,3928039
20.9917,3888445
20.9965,4005431
21.0013,4042730
21.006,4128863
21.0108,4124161
21.0155,4210974
21.0203,4354599
21.0251,4639444
21.0298,4742397
21.0346,4917928
21.0394,5094547
21.0441,5229778
21.0489,5412035
21.0536,5571791
21.0584,5424944
21.0632,5294477
21.0679,5003044
21.0727,4785640
21.0775,4654864
21.0822,4370387
21.087,4232918
21.0917,4175094
21.0965,4137060
21.1013,4105618
21.106,4059024
21.1108,4107447
21.1155,4015035
21.1203,4038039
21.1251,4067474
21.1298,4019797
21.1346,3947070
21.1394,3991341
21.1441,3958586
21.1489,4086113
21.1536,3949491
21.1584,3971781
21.1632,3947018
21.1679,4006269
21.1727,4003674
21.1775,3982132
21.1822,3905632
21.187,3954606
21.1917,4006147
21.1965,3985438
21.2013,3879192
21.206,3896386
21.2108,3911563
21.2155,3966538
21.2203,3853053
21.2251,3972341
21.2298,3908699
21.2346,3899995
21.2394,3886911
21.2441,3892384
21.2489,3894871
21.2536,3929771
21.2584,3891147
21.2632,3862684
21.2679,3949639
21.2727,3859744
21.2775,3953260
21.2822,3869514
21.287,3892552
21.2917,3816813
21.2965,3895888
21.3013,3863595
21.306,3927104
21.3108,3824876
21.3155,3942220
21.3203,3932231
21.3251,3863722
21.3298,3818449
21.3346,3789445
21.3394,3782739
21.3441,3843014
21.3489,3852370
21.3536,3791596
21.3584,3904661
21.3632,3858907
21.3679,3824989
21.3727,3946089
21.3775,3883061
21.3822,3891527
21.387,3926006
21.3917,3850082
21.3965,3798930
21.4013,3918791
21.406,3914961
21.4108,3835937
21.4155,3929160
21.4203,3834346
21.4251,3929251
21.4298,3903713
21.4346,3868237
21.4394,3839747
21.4441,3805488
21.4489,3784348
21.4536,3784773
21.4584,3897191
21.4632,3800067
21.4679,3886985
21.4727,3875758
21.4775,3845640
21.4822,3840716
21.487,3853032
21.4917,3854701
21.4965,3827275
