D:\DATA\HAMBERGER\NICK\20230701\20230701_5-26-23_NBenthi_21.D  2 Jul 23   1:45 am
Start of data points
4.09165,2585826
4.09642,2551664
4.10118,2582350
4.10595,2534304
4.1107,2547645
4.11547,2522176
4.12023,2583436
4.12498,2701092
4.12975,2766283
4.13452,2579074
4.13928,2469029
4.14403,2495280
4.1488,2719119
4.15357,2461640
4.15832,2408670
4.16308,2255531
4.16785,2262352
4.17262,2212295
4.17737,2175147
4.18213,2225420
4.1869,2235840
4.19165,2233961
4.19642,2307139
4.20118,2123510
4.20595,2099697
4.2107,2072098
4.21547,2037053
4.22023,2023527
4.22498,2038614
4.22975,1975761
4.23452,1968006
4.23928,2033267
4.24403,2084590
4.2488,2011062
4.25357,1906505
4.25833,1939680
4.26308,1913448
4.26785,1905852
4.27262,1961620
4.27737,1873132
4.28213,2037486
4.2869,2241468
4.29167,2078950
4.29642,1843255
4.30118,1770092
4.30595,1773293
4.3107,1725408
4.31547,1754960
4.32023,1730506
4.325,1796089
4.32975,1899732
4.33452,2002229
4.33928,1865894
4.34403,1728361
4.3488,1741763
4.35357,1837319
4.35833,1931170
4.36308,1900700
4.36785,1959065
4.37262,2005819
4.37737,1918099
4.38213,1891586
4.3869,1912463
4.39167,1812870
4.39642,1862948
4.40118,1776287
4.40595,1751433
4.4107,1701214
4.41547,1704456
4.42023,1695835
4.425,1739597
4.42975,1852496
4.43452,1901377
4.43928,1849464
4.44405,1766336
4.4488,1837061
4.45357,1811407
4.45833,1752259
4.46308,1686511
4.46785,1660902
4.47262,1618687
4.47738,1581733
4.48213,1673151
4.4869,1675320
4.49167,1625140
4.49642,1647628
4.50118,1665120
4.50595,1630422
4.51072,1651390
4.51547,1589423
4.52023,1706519
4.525,1801701
4.52975,1675298
4.53452,1649411
4.53928,1560424
4.54405,1631416
4.5488,1695327
4.55357,1633698
4.55833,1601175
4.56308,1582571
4.56785,1536375
4.57262,1641068
4.57738,1820201
4.58213,2087515
4.5869,2203114
4.59167,2057097
4.59643,1794112
4.60118,1642291
4.60595,1578782
4.61072,1549561
4.61547,1514174
4.62023,1556661
4.625,1539551
4.62977,1464511
4.63452,1441361
4.63928,1455857
4.64405,1460848
4.6488,1442063
4.65357,1456266
4.65833,1494273
4.6631,1449247
4.66785,1473411
4.67262,1508759
4.67738,1494336
4.68213,1483569
4.6869,1457194
4.69167,1430451
4.69643,1414449
4.70118,1399133
4.70595,1395918
4.71072,1381548
4.71547,1423669
4.72023,1433697
4.725,1392700
4.72977,1387773
4.73452,1421030
4.73928,1405174
4.74405,1400730
4.7488,1363366
4.75357,1395179
4.75833,1406490
4.7631,1438905
4.76785,1364736
4.77262,1410778
4.77738,1358017
4.78215,1393034
4.7869,1404858
4.79167,1395085
4.79643,1419548
4.80118,1381865
4.80595,1322753
4.81072,1393141
4.81548,1375448
4.82023,1358053
4.825,1358601
4.82977,1343215
4.83452,1400910
4.83928,1378213
4.84405,1374403
4.84882,1386278
4.85357,1461058
4.85833,1424258
4.8631,1378793
4.86785,1441600
4.87262,1470135
4.87738,1542191
4.88215,1467792
4.8869,1476799
4.89167,1460236
4.89643,1493557
4.90118,1493081
4.90595,1498628
4.91072,1482284
4.91548,1437098
4.92023,1507902
4.925,1408894
4.92977,1448408
4.93453,1484441
4.93928,1474809
4.94405,1437980
4.94882,1452975
4.95357,1397401
4.95833,1481693
4.9631,1416286
4.96787,1450058
4.97262,1437068
4.97738,1429110
4.98215,1413967
4.9869,1419542
4.99167,1387950
4.99643,1414920
5.0012,1387794
5.00595,1365690
5.01072,1358199
5.01548,1345796
5.02023,1344114
5.025,1392634
5.02977,1402790
5.03453,1337509
5.03928,1347324
5.04405,1348817
5.04882,1376661
5.05357,1332356
5.05833,1353437
5.0631,1341123
5.06787,1372649
5.07262,1346670
5.07738,1371553
5.08215,1376621
5.0869,1346600
5.09167,1352202
5.09643,1407991
5.1012,1290682
5.10595,1360621
5.11072,1331834
5.11548,1285588
5.12025,1305620
5.125,1247056
5.12977,1312932
5.13453,1371351
5.13928,1333711
5.14405,1429449
5.14882,1494020
5.15358,1492351
5.15833,1444440
5.1631,1472420
5.16787,1423718
5.17262,1489331
5.17738,1484826
5.18215,1487288
5.18692,1480843
5.19167,1484051
5.19643,1441635
5.2012,1470525
5.20595,1417482
5.21072,1470424
5.21548,1494677
5.22025,1430424
5.225,1468234
5.22977,1514420
5.23453,1541564
5.23928,1484295
5.24405,1507912
5.24882,1479037
5.25358,1444748
5.25833,1484130
5.2631,1468786
5.26787,1642399
5.27263,1812688
5.27738,1801472
5.28215,1683637
5.28692,1600031
5.29167,1478875
5.29643,1474614
5.3012,1465757
5.30597,1449167
5.31072,1439884
5.31548,1392025
5.32025,1391686
5.325,1425676
5.32977,1397325
5.33453,1446642
5.3393,1445428
5.34405,1406522
5.34882,1447110
5.35358,1454856
5.35833,1391114
5.3631,1429969
5.36787,1398608
5.37263,1408763
5.37738,1397413
5.38215,1431091
5.38692,1411423
5.39167,1454345
5.39643,1445866
5.4012,1391514
5.40597,1448564
5.41072,1428974
5.41548,1405530
5.42025,1391780
5.425,1444504
5.42977,1463433
5.43453,1421529
5.4393,1452960
5.44405,1383813
5.44882,1467062
5.45358,1440598
5.45835,1425883
5.4631,1356001
5.46787,1409505
5.47263,1377263
5.47738,1378495
5.48215,1378649
5.48692,1369631
5.49168,1368719
5.49643,1361807
5.5012,1366824
5.50597,1389656
5.51072,1407390
5.51548,1395360
5.52025,1359869
5.52502,1396164
5.52977,1336716
5.53453,1368634
5.5393,1375449
5.54405,1350583
5.54882,1301492
5.55358,1334627
5.55835,1331376
5.5631,1302024
5.56787,1348655
5.57263,1310020
5.57738,1360323
5.58215,1350634
5.58692,1330713
5.59168,1287425
5.59643,1310141
5.6012,1304675
5.60597,1306180
5.61072,1287251
5.61548,1321779
5.62025,1324568
5.62502,1348586
5.62977,1277066
5.63453,1291618
5.6393,1290234
5.64407,1317614
5.64882,1308533
5.65358,1326106
5.65835,1315407
5.6631,1303546
5.66787,1273096
5.67263,1284012
5.6774,1283034
5.68215,1313991
5.68692,1282253
5.69168,1283433
5.69643,1327089
5.7012,1296717
5.70597,1260201
5.71073,1330645
5.71548,1277658
5.72025,1259625
5.72502,1260687
5.72977,1274374
5.73453,1251227
5.7393,1322799
5.74407,1254267
5.74882,1262869
5.75358,1282698
5.75835,1315055
5.7631,1298262
5.76787,1246669
5.77263,1351631
5.7774,1336629
5.78215,1363115
5.78692,1694649
5.79168,2422168
5.79645,2820667
5.8012,2962985
5.80597,2878353
5.81073,2866851
5.81548,2776934
5.82025,2792072
5.82502,2647254
5.82978,2620398
5.83453,2612191
5.8393,2468994
5.84407,2511364
5.84882,2470238
5.85358,2436038
5.85835,2361555
5.86312,2262981
5.86787,2192309
5.87263,2188657
5.8774,2167946
5.88215,2104102
5.88692,2065731
5.89168,2015741
5.89645,2038694
5.9012,2057966
5.90597,1978681
5.91073,1902545
5.91548,1897859
5.92025,1872952
5.92502,1839420
5.92978,1835454
5.93453,1754533
5.9393,1748069
5.94407,1710253
5.94882,1701899
5.95358,1675620
5.95835,1704339
5.96312,1733300
5.96787,1885670
5.97263,1884323
5.9774,1842421
5.98217,1720222
5.98692,1710876
5.99168,1610279
5.99645,1636908
6.0012,1563870
6.00597,1532353
6.01073,1549360
6.0155,1513156
6.02025,1455601
6.02502,1517677
6.02978,1498575
6.03453,1482621
6.0393,1453146
6.04407,1449872
6.04883,1431953
6.05358,1382588
6.05835,1482959
6.06312,1405384
6.06787,1384576
6.07263,1406445
6.0774,1441453
6.08217,1487695
6.08692,1505158
6.09168,1565769
6.09645,1529422
6.1012,1472848
6.10597,1486610
6.11073,1406779
6.1155,1518310
6.12025,1329362
6.12502,1363969
6.12978,1335283
6.13455,1350291
6.1393,1347694
6.14407,1301433
6.14883,1297257
6.15358,1311386
6.15835,1323216
6.16312,1279737
6.16788,1278151
6.17263,1342989
6.1774,1392724
6.18217,1396560
6.18692,1359483
6.19168,1389754
6.19645,1413997
6.20122,1315377
6.20597,1292030
6.21073,1290213
6.2155,1336289
6.22025,1372177
6.22502,1346955
6.22978,1319639
6.23455,1299577
6.2393,1306503
6.24407,1226326
6.24883,1236095
6.25358,1236735
6.25835,1302610
6.26312,1281966
6.26788,1252855
6.27263,1239625
6.2774,1243600
6.28217,1215258
6.28692,1231896
6.29168,1212831
6.29645,1190516
6.30122,1191337
6.30597,1210141
6.31073,1169322
6.3155,1141363
6.32027,1204403
6.32502,1196706
6.32978,1202527
6.33455,1178181
6.3393,1238375
6.34407,1160686
6.34883,1211623
6.3536,1173168
6.35835,1160227
6.36312,1183474
6.36788,1169358
6.37263,1154971
6.3774,1138001
6.38217,1114952
6.38693,1142360
6.39168,1158686
6.39645,1172618
6.40122,1157659
6.40597,1172224
6.41073,1158433
6.4155,1204377
6.42027,1218672
6.42502,1267701
6.42978,1252306
6.43455,1207965
6.4393,1156838
6.44407,1169085
6.44883,1155453
6.4536,1147147
6.45835,1118034
6.46312,1129275
6.46788,1113709
6.47263,1095578
6.4774,1140846
6.48217,1137069
6.48693,1149510
6.49168,1115159
6.49645,1129740
6.50122,1097262
6.50598,1103701
6.51073,1105847
6.5155,1086646
6.52027,1089144
6.52502,1116558
6.52978,1071178
6.53455,1085620
6.53932,1080105
6.54407,1131723
6.54883,1132536
6.5536,1114632
6.55835,1062810
6.56312,1065133
6.56788,1067834
6.57265,1053552
6.5774,1071507
6.58217,1043680
6.58693,1048499
6.59168,1052901
6.59645,1040476
6.60122,1054172
6.60598,1090321
6.61073,1092845
6.6155,1049362
6.62027,1078929
6.62502,1064546
6.62978,999925
6.63455,1044472
6.63932,1074265
6.64407,1056056
6.64883,1053031
6.6536,1067442
6.65837,1030320
6.66312,1055781
6.66788,1031670
6.67265,1042964
6.6774,1013693
6.68217,984998
6.68693,1024980
6.6917,1021078
6.69645,1038626
6.70122,1045427
6.70598,1007570
6.71073,1056609
6.7155,1063936
6.72027,1000784
6.72503,982611
6.72978,1079225
6.73455,1037414
6.73932,1058216
6.74407,1027557
6.74883,1001769
6.7536,999063
6.75837,1037105
6.76312,1011612
6.76788,1042808
6.77265,1043213
6.7774,1019631
6.78217,1039492
6.78693,1016744
6.7917,1037953
6.79645,1035338
6.80122,1050559
6.80598,1069307
6.81073,1056184
6.8155,1067586
6.82027,1022286
6.82503,1047629
6.82978,1022463
6.83455,1035757
6.83932,1087566
6.84408,1075156
6.84883,1111197
6.8536,1139557
6.85837,1097362
6.86312,1029278
6.86788,999825
6.87265,997748
6.87742,1002381
6.88217,996225
6.88693,984882
6.8917,966750
6.89645,976342
6.90122,999291
6.90598,990518
6.91075,1018634
6.9155,1020763
6.92027,979628
6.92503,1044996
6.92978,1036656
6.93455,973977
6.93932,979332
6.94408,990069
6.94883,945540
6.9536,980401
6.95837,947913
6.96312,962929
6.96788,970898
6.97265,945737
6.97742,980941
6.98217,969069
6.98693,945568
6.9917,958592
6.99645,967148
7.00122,913200
7.00598,952063
7.01075,936988
7.0155,954998
7.02027,953065
7.02503,932491
7.0298,916928
7.03455,942920
7.03932,957892
7.04408,911653
7.04883,925909
7.0536,924655
7.05837,922247
7.06313,932381
7.06788,929399
7.07265,890558
7.07742,863748
7.08217,932449
7.08693,895824
7.0917,914834
7.09647,876724
7.10122,894273
7.10598,912758
7.11075,883016
7.1155,899044
7.12027,900856
7.12503,855568
7.1298,886834
7.13455,847466
7.13932,862031
7.14408,878848
7.14883,869301
7.1536,853307
7.15837,885331
7.16313,893020
7.16788,852215
7.17265,829006
7.17742,839107
7.18218,900630
7.18693,852447
7.1917,894156
7.19647,858674
7.20122,868594
7.20598,847413
7.21075,841778
7.21552,849660
7.22027,845626
7.22503,842126
7.2298,837141
7.23455,876344
7.23932,855831
7.24408,826289
7.24885,834671
7.2536,870705
7.25837,844406
7.26313,834066
7.26788,879162
7.27265,798631
7.27742,880329
7.28218,819549
7.28693,840704
7.2917,842133
7.29647,825156
7.30122,850864
7.30598,848906
7.31075,850279
7.31552,805130
7.32027,803773
7.32503,824360
7.3298,828316
7.33455,800788
7.33932,826727
7.34408,847103
7.34885,801949
7.3536,851419
7.35837,835851
7.36313,752597
7.3679,828334
7.37265,809856
7.37742,796865
7.38218,771227
7.38693,797993
7.3917,818068
7.39647,809350
7.40123,834718
7.40598,800103
7.41075,817984
7.41552,792231
7.42027,797587
7.42503,823261
7.4298,818938
7.43457,789782
7.43932,822495
7.44408,772552
7.44885,808381
7.4536,795338
7.45837,786876
7.46313,803328
7.4679,752906
7.47265,750870
7.47742,796992
7.48218,758364
7.48693,791580
7.4917,784471
7.49647,780251
7.50123,814832
7.50598,795359
7.51075,805953
7.51552,784785
7.52028,782816
7.52503,808089
7.5298,832882
7.53457,857224
7.53932,886419
7.54408,972365
7.54885,971403
7.55362,944934
7.55837,914133
7.56313,892795
7.5679,803422
7.57265,808690
7.57742,769976
7.58218,800184
7.58695,763147
7.5917,804548
7.59647,784293
7.60123,740617
7.60598,796197
7.61075,789162
7.61552,777051
7.62028,807504
7.62503,793102
7.6298,779588
7.63457,786270
7.63932,787272
7.64408,720551
7.64885,720848
7.65362,771920
7.65837,751942
7.66313,762285
7.6679,754053
7.67265,743870
7.67742,727793
7.68218,770320
7.68695,744339
7.6917,726897
7.69647,751405
7.70123,732738
7.706,728241
7.71075,752586
7.71552,721975
7.72028,716008
7.72503,737324
7.7298,744261
7.73457,714559
7.73933,717330
7.74408,733006
7.74885,723551
7.75362,726941
7.75837,718064
7.76313,739318
7.7679,735510
7.77267,708655
7.77742,756003
7.78218,697509
7.78695,719183
7.7917,724575
7.79647,736179
7.80123,732090
7.806,731346
7.81075,727147
7.81552,755709
7.82028,740245
7.82503,747970
7.8298,724436
7.83457,751291
7.83933,749194
7.84408,722407
7.84885,727083
7.85362,715277
7.85838,732768
7.86313,677920
7.8679,677682
7.87267,686469
7.87742,713228
7.88218,721298
7.88695,726509
7.89172,723028
7.89647,750049
7.90123,719706
7.906,711952
7.91075,715167
7.91552,720536
7.92028,720794
7.92505,763462
7.9298,790702
7.93457,855716
7.93933,879461
7.94408,903554
7.94885,851065
7.95362,845814
7.95838,750927
7.96313,755801
7.9679,738240
7.97267,724818
7.97742,722148
7.98218,733688
7.98695,688100
7.99172,741479
7.99647,726660
8.00123,761932
8.006,763778
8.01075,751607
8.01552,761768
8.02028,734779
8.02505,802435
8.0298,806768
8.03457,786997
8.03933,787077
8.0441,783588
8.04885,779938
8.05362,733776
8.05838,719113
8.06313,731853
8.0679,765110
8.07267,784168
8.07743,811687
8.08218,799504
8.08695,785078
8.09172,769878
8.09647,711188
8.10123,745232
8.106,725091
8.11077,715737
8.11552,692055
8.12028,730437
8.12505,717906
8.1298,731444
8.13457,730605
8.13933,704814
8.1441,704873
8.14885,740119
8.15362,692389
8.15838,679938
8.16313,663978
8.1679,690412
8.17267,681221
8.17743,699451
8.18218,666247
8.18695,690163
8.19172,652806
8.19647,668272
8.20123,655408
8.206,662506
8.21077,663242
8.21552,669478
8.22028,688245
8.22505,658308
8.22982,666324
8.23457,678629
8.23933,677828
8.2441,682018
8.24885,644699
8.25362,680083
8.25838,672710
8.26315,675412
8.2679,659001
8.27267,645461
8.27743,682232
8.28218,633089
8.28695,638841
8.29172,637666
8.29648,669170
8.30123,635986
8.306,611702
8.31077,661811
8.31552,644118
8.32028,637736
8.32505,615851
8.32982,624381
8.33457,663216
8.33933,653457
8.3441,672744
8.34885,654025
8.35362,630327
8.35838,633761
8.36315,667733
8.3679,641272
8.37267,647530
8.37743,655178
8.3822,622188
8.38695,639389
8.39172,658405
8.39648,643026
8.40123,626091
8.406,594099
8.41077,629385
8.41553,617889
8.42028,633121
8.42505,613925
8.42982,618594
8.43457,647964
8.43933,626086
8.4441,591399
8.44887,609591
8.45362,611177
8.45838,605952
8.46315,650104
8.4679,601375
8.47267,626129
8.47743,628905
8.4822,620219
8.48695,621533
8.49172,606444
8.49648,612895
8.50123,637281
8.506,625104
8.51077,642552
8.51553,582800
8.52028,617550
8.52505,614867
8.52982,615693
8.53457,598874
8.53933,633846
8.5441,614816
8.54887,592375
8.55362,614847
8.55838,607755
8.56315,616808
8.56792,593923
8.57267,593845
8.57743,617876
8.5822,619685
8.58695,623040
8.59172,604252
8.59648,587425
8.60125,604312
8.606,607904
8.61077,563802
8.61553,594509
8.62028,618028
8.62505,594532
8.62982,595253
8.63458,592323
8.63933,605492
8.6441,600574
8.64887,611320
8.65362,613740
8.65838,593272
8.66315,602936
8.66792,559749
8.67267,580143
8.67743,628337
8.6822,580887
8.68695,580336
8.69172,623422
8.69648,594412
8.70125,624886
8.706,619175
8.71077,591290
8.71553,626347
8.7203,615008
8.72505,600114
8.72982,600206
8.73458,595236
8.73933,580930
8.7441,577683
8.74887,568925
8.75363,592362
8.75838,565699
8.76315,549417
8.76792,573370
8.77267,580111
8.77743,559115
8.7822,589639
8.78697,576368
8.79172,600355
8.79648,575026
8.80125,579216
8.806,573945
8.81077,599942
8.81553,582767
8.8203,567915
8.82505,564379
8.82982,542010
8.83458,555589
8.83933,580538
8.8441,574896
8.84887,595671
8.85363,581482
8.85838,583816
8.86315,548616
8.86792,605344
8.87267,558007
8.87743,598027
8.8822,569844
8.88697,574742
8.89172,585098
8.89648,580293
8.90125,597446
8.90602,555995
8.91077,589696
8.91553,587387
8.9203,564161
8.92505,533996
8.92982,548280
8.93458,586828
8.93935,549871
8.9441,561387
8.94887,596712
8.95363,546256
8.95838,544936
8.96315,550807
8.96792,575569
8.97268,557392
8.97743,575811
8.9822,569802
8.98697,580802
8.99172,576422
8.99648,589436
9.00125,629727
9.00602,653045
9.01077,667789
9.01553,687762
9.0203,656346
9.02505,685198
9.02982,678039
9.03458,630071
9.03935,604602
9.0441,596705
9.04887,602194
9.05363,601606
9.05838,565885
9.06315,567272
9.06792,562120
9.07268,570384
9.07743,567827
9.0822,577936
9.08697,565399
9.09173,524738
9.09648,536075
9.10125,571246
9.10602,553284
9.11077,534743
9.11553,551979
9.1203,524393
9.12507,568626
9.12982,542854
9.13458,576264
9.13935,584992
9.1441,597848
9.14887,578094
9.15363,629648
9.1584,586087
9.16315,610571
9.16792,617075
9.17268,575722
9.17743,589945
9.1822,542503
9.18697,557115
9.19173,535634
9.19648,534416
9.20125,543644
9.20602,537267
9.21077,556018
9.21553,528800
9.2203,537679
9.22507,517437
9.22982,509716
9.23458,537536
9.23935,556444
9.24412,548551
9.24887,532449
9.25363,548378
9.2584,546424
9.26315,518261
9.26792,519708
9.27268,568859
9.27745,513073
9.2822,488301
9.28697,557398
9.29173,531942
9.29648,518107
9.30125,561513
9.30602,521924
9.31078,525417
9.31553,518055
9.3203,514138
9.32507,535116
9.32982,522363
9.33458,521853
9.33935,550415
9.34412,553709
9.34887,590542
9.35363,563852
9.3584,562092
9.36315,528850
9.36792,538318
9.37268,541189
9.37745,566180
9.3822,524682
9.38697,563315
9.39173,539602
9.39648,526899
9.40125,548512
9.40602,553655
9.41078,547256
9.41553,568941
9.4203,565177
9.42507,556354
9.42983,707423
9.43458,539087
9.43935,526759
9.44412,532569
9.44887,517030
9.45363,517544
9.4584,491709
9.46317,496557
9.46792,510895
9.47268,517078
9.47745,526530
9.4822,496607
9.48697,506092
9.49173,509284
9.4965,527838
9.50125,485631
9.50602,512835
9.51078,543225
9.51553,525266
9.5203,502112
9.52507,493841
9.52983,497943
9.53458,509555
9.53935,513148
9.54412,511657
9.54887,504776
9.55363,522282
9.5584,499697
9.56317,509460
9.56792,528369
9.57268,522587
9.57745,535460
9.58222,539147
9.58697,530982
9.59173,535841
9.5965,536772
9.60125,546059
9.60602,538988
9.61078,523943
9.61555,532785
9.6203,536529
9.62507,521620
9.62983,524137
9.63458,581905
9.63935,563453
9.64412,545876
9.64888,553310
9.65363,577395
9.6584,555470
9.66317,521231
9.66792,533646
9.67268,534957
9.67745,517138
9.68222,506274
9.68697,476596
9.69173,504051
9.6965,501239
9.70125,502620
9.70602,489075
9.71078,522911
9.71555,489259
9.7203,462173
9.72507,478238
9.72983,492855
9.73458,496568
9.73935,500092
9.74412,489455
9.74888,488689
9.75363,506192
9.7584,479220
9.76317,502309
9.76793,544547
9.77268,518371
9.77745,516661
9.78222,527135
9.78697,496303
9.79173,525773
9.7965,500926
9.80127,499191
9.80602,475238
9.81078,495709
9.81555,498163
9.8203,483439
9.82507,515572
9.82983,493220
9.8346,517212
9.83935,503435
9.84412,508592
9.84888,503724
9.85363,487011
9.8584,487612
9.86317,496881
9.86793,496005
9.87268,485590
9.87745,519219
9.88222,506012
9.88697,501842
9.89173,502904
9.8965,515462
9.90127,476459
9.90602,482511
9.91078,503263
9.91555,513781
9.92032,458906
9.92507,533633
9.92983,488522
9.9346,485450
9.93935,519395
9.94412,496817
9.94888,462486
9.95365,498832
9.9584,500250
9.96317,511384
9.96793,529294
9.97268,574470
9.97745,558213
9.98222,586620
9.98698,651576
9.99173,695390
9.9965,710016
10.0013,740943
10.006,696145
10.0108,647962
10.0156,615554
10.0203,588663
10.0251,522953
10.0298,515621
10.0346,522498
10.0394,531653
10.0441,499379
10.0489,493403
10.0537,525558
10.0584,659198
10.0632,477063
10.0679,508457
10.0727,533480
10.0775,527663
10.0822,520870
10.087,504837
10.0917,551692
10.0965,538115
10.1013,525327
10.106,533627
10.1108,532041
10.1156,559308
10.1203,576649
10.1251,599929
10.1298,605940
10.1346,586624
10.1394,599848
10.1441,587621
10.1489,595148
10.1537,557717
10.1584,537869
10.1632,500877
10.1679,525394
10.1727,551998
10.1775,539784
10.1822,537666
10.187,522469
10.1917,528921
10.1965,546558
10.2013,561306
10.206,588406
10.2108,608303
10.2156,623667
10.2203,573773
10.2251,598860
10.2298,546017
10.2346,560295
10.2394,556413
10.2441,539488
10.2489,509865
10.2537,518307
10.2584,535306
10.2632,518008
10.2679,540778
10.2727,532071
10.2775,520760
10.2822,531024
10.287,515497
10.2918,519074
10.2965,527898
10.3013,494338
10.306,523021
10.3108,508189
10.3156,529218
10.3203,487524
10.3251,521044
10.3298,487934
10.3346,489167
10.3394,499352
10.3441,491899
10.3489,499135
10.3537,530672
10.3584,451753
10.3632,487778
10.3679,517047
10.3727,515829
10.3775,503599
10.3822,520207
10.387,525940
10.3918,509218
10.3965,505762
10.4013,492452
10.406,477021
10.4108,524392
10.4156,535687
10.4203,497440
10.4251,519238
10.4298,529799
10.4346,538244
10.4394,544800
10.4441,524861
10.4489,499304
10.4537,507930
10.4584,482565
10.4632,483058
10.4679,497965
10.4727,495074
10.4775,517376
10.4822,491822
10.487,517673
10.4918,561613
10.4965,559285
10.5013,598444
10.506,643483
10.5108,694481
10.5156,679443
10.5203,693868
10.5251,637358
10.5298,603655
10.5346,586147
10.5394,535170
10.5441,526290
10.5489,510361
10.5537,501346
10.5584,550555
10.5632,517621
10.5679,524149
10.5727,515922
10.5775,522468
10.5822,539516
10.587,533480
10.5918,573084
10.5965,531187
10.6013,551335
10.606,514684
10.6108,530773
10.6156,524877
10.6203,511993
10.6251,512628
10.6299,524283
10.6346,502611
10.6394,510216
10.6441,525212
10.6489,544106
10.6537,515266
10.6584,508779
10.6632,474788
10.6679,480598
10.6727,525888
10.6775,538853
10.6822,521361
10.687,499153
10.6918,516673
10.6965,590026
10.7013,571655
10.706,598265
10.7108,597701
10.7156,608851
10.7203,578430
10.7251,586889
10.7299,542281
10.7346,523818
10.7394,521327
10.7441,522996
10.7489,523999
10.7537,525515
10.7584,557394
10.7632,571206
10.7679,603831
10.7727,648848
10.7775,721457
10.7822,736505
10.787,696351
10.7918,697967
10.7965,650558
10.8013,626251
10.806,584648
10.8108,559169
10.8156,563450
10.8203,593267
10.8251,536008
10.8299,558468
10.8346,510683
10.8394,542406
10.8441,551380
10.8489,568909
10.8537,579086
10.8584,564813
10.8632,552436
10.8679,567075
10.8727,545688
10.8775,561502
10.8822,555261
10.887,553936
10.8918,532534
10.8965,542407
10.9013,527663
10.906,562000
10.9108,532778
10.9156,543626
10.9203,540277
10.9251,536031
10.9299,561594
10.9346,560518
10.9394,574102
10.9441,562494
10.9489,568668
10.9537,589350
10.9584,602760
10.9632,614125
10.968,621623
10.9727,626272
10.9775,669324
10.9822,670748
10.987,609612
10.9918,618282
10.9965,601930
11.0013,611188
11.006,603457
11.0108,567496
11.0156,568176
11.0203,584611
11.0251,594673
11.0299,605122
11.0346,692700
11.0394,676203
11.0441,702702
11.0489,652809
11.0537,661816
11.0584,626282
11.0632,639202
11.068,591100
11.0727,580141
11.0775,591043
11.0822,596766
11.087,589532
11.0918,572900
11.0965,593724
11.1013,594505
11.106,617008
11.1108,639085
11.1156,644097
11.1203,624648
11.1251,593669
11.1299,605166
11.1346,587183
11.1394,552945
11.1441,603799
11.1489,571515
11.1537,561660
11.1584,544868
11.1632,545878
11.168,569185
11.1727,562892
11.1775,555117
11.1822,523739
11.187,533669
11.1918,522297
11.1965,536279
11.2013,561811
11.206,539275
11.2108,532518
11.2156,541024
11.2203,543656
11.2251,569095
11.2299,567035
11.2346,567394
11.2394,627016
11.2441,660015
11.2489,653625
11.2537,702586
11.2584,681204
11.2632,638467
11.268,584076
11.2727,565882
11.2775,589643
11.2822,551680
11.287,553615
11.2918,524547
11.2965,590019
11.3013,559164
11.3061,545571
11.3108,577799
11.3156,537135
11.3203,545135
11.3251,543755
11.3299,549492
11.3346,550178
11.3394,517944
11.3441,534659
11.3489,550290
11.3537,558855
11.3584,542413
11.3632,534632
11.368,545251
11.3727,541103
11.3775,537821
11.3822,561893
11.387,547533
11.3918,559069
11.3965,536255
11.4013,538529
11.4061,554430
11.4108,538635
11.4156,577567
11.4203,535230
11.4251,559358
11.4299,567942
11.4346,599519
11.4394,585458
11.4441,608982
11.4489,569854
11.4537,593151
11.4584,582269
11.4632,591255
11.468,567303
11.4727,555233
11.4775,535304
11.4822,556808
11.487,552938
11.4918,558356
11.4965,561446
11.5013,555026
11.5061,573099
11.5108,538599
11.5156,591351
11.5203,552911
11.5251,493298
11.5299,547872
11.5346,559094
11.5394,574899
11.5441,598274
11.5489,593764
11.5537,584431
11.5584,566303
11.5632,567362
11.568,567312
11.5727,537470
11.5775,525074
11.5822,533576
11.587,576931
11.5918,578993
11.5965,597652
11.6013,622291
11.6061,602717
11.6108,664759
11.6156,596918
11.6203,629970
11.6251,609485
11.6299,573290
11.6346,544812
11.6394,557781
11.6442,552872
11.6489,543957
11.6537,559810
11.6584,612461
11.6632,647348
11.668,704560
11.6727,728472
11.6775,762297
11.6822,716612
11.687,664007
11.6918,645106
11.6965,629319
11.7013,652466
11.7061,681075
11.7108,770980
11.7156,749786
11.7203,739191
11.7251,636574
11.7299,630143
11.7346,565238
11.7394,537245
11.7442,580325
11.7489,582751
11.7537,566900
11.7584,576689
11.7632,581987
11.768,609359
11.7727,639396
11.7775,667241
11.7822,707486
11.787,760055
11.7918,741605
11.7965,759670
11.8013,694228
11.8061,689769
11.8108,689556
11.8156,681796
11.8203,612862
11.8251,622179
11.8299,616764
11.8346,592841
11.8394,573976
11.8442,590144
11.8489,619611
11.8537,619595
11.8584,582178
11.8632,603429
11.868,591684
11.8727,639453
11.8775,629098
11.8822,600442
11.887,620922
11.8918,602916
11.8965,622262
11.9013,615454
11.9061,608587
11.9108,604420
11.9156,587367
11.9203,578572
11.9251,546538
11.9299,564760
11.9346,582807
11.9394,569638
11.9442,570684
11.9489,592171
11.9537,592876
11.9584,604163
11.9632,580249
11.968,580069
11.9727,577580
11.9775,583444
11.9823,564138
11.987,555751
11.9918,541384
11.9965,554810
12.0013,580924
12.0061,591760
12.0108,602662
12.0156,605936
12.0203,594095
12.0251,588324
12.0299,590191
12.0346,598125
12.0394,594156
12.0442,599459
12.0489,616774
12.0537,591837
12.0584,591690
12.0632,611140
12.068,587953
12.0727,608787
12.0775,608671
12.0823,598918
12.087,596820
12.0918,571147
12.0965,605783
12.1013,592024
12.1061,644146
12.1108,656740
12.1156,739651
12.1203,815068
12.1251,897827
12.1299,903204
12.1346,915414
12.1394,854163
12.1442,781494
12.1489,724692
12.1537,678305
12.1584,657523
12.1632,635996
12.168,623351
12.1727,631194
12.1775,646242
12.1823,701538
12.187,653853
12.1918,655585
12.1965,673193
12.2013,617273
12.2061,627094
12.2108,621283
12.2156,640413
12.2203,590147
12.2251,613243
12.2299,647352
12.2346,637244
12.2394,616941
12.2442,615492
12.2489,634576
12.2537,593971
12.2584,601869
12.2632,614528
12.268,583017
12.2727,616385
12.2775,602791
12.2823,630427
12.287,612906
12.2918,756074
12.2965,1213414
12.3013,2494934
12.3061,4884014
12.3108,8788588
12.3156,13750192
12.3203,16639857
12.3251,15535771
12.3299,11505615
12.3346,7133146
12.3394,3744334
12.3442,2102556
12.3489,1281435
12.3537,912170
12.3584,816687
12.3632,783127
12.368,772661
12.3727,759433
12.3775,701950
12.3823,732601
12.387,779692
12.3918,779812
12.3965,738203
12.4013,759690
12.4061,768249
12.4108,746722
12.4156,749428
12.4204,720354
12.4251,717912
12.4299,720676
12.4346,739108
12.4394,788471
12.4442,895196
12.4489,911486
12.4537,904977
12.4584,885009
12.4632,854363
12.468,785280
12.4727,771020
12.4775,775980
12.4823,819703
12.487,854224
12.4918,908449
12.4965,913862
12.5013,889358
12.5061,832744
12.5108,815024
12.5156,757648
12.5204,704669
12.5251,710433
12.5299,719115
12.5346,699847
12.5394,715102
12.5442,720655
12.5489,705965
12.5537,743926
12.5584,699582
12.5632,693234
12.568,679362
12.5727,660495
12.5775,666256
12.5823,697269
12.587,686442
12.5918,684754
12.5965,708415
12.6013,702689
12.6061,737826
12.6108,776595
12.6156,797904
12.6204,848885
12.6251,881560
12.6299,966734
12.6346,889977
12.6394,880269
12.6442,770490
12.6489,766357
12.6537,704639
12.6584,715424
12.6632,667484
12.668,662531
12.6727,677535
12.6775,710237
12.6823,675237
12.687,687564
12.6918,717895
12.6965,739395
12.7013,713283
12.7061,699585
12.7108,672695
12.7156,677762
12.7204,663270
12.7251,644294
12.7299,711063
12.7346,626104
12.7394,636950
12.7442,640262
12.7489,648646
12.7537,662832
12.7585,670231
12.7632,680320
12.768,673371
12.7727,659584
12.7775,713238
12.7823,680081
12.787,705300
12.7918,709300
12.7965,720565
12.8013,670714
12.8061,670210
12.8108,702055
12.8156,693800
12.8204,698128
12.8251,728472
12.8299,674113
12.8346,660827
12.8394,677047
12.8442,693777
12.8489,691071
12.8537,674533
12.8585,632366
12.8632,648678
12.868,688415
12.8727,672755
12.8775,654114
12.8823,663162
12.887,653992
12.8918,616587
12.8965,673379
12.9013,679538
12.9061,672776
12.9108,670477
12.9156,656279
12.9204,676479
12.9251,671807
12.9299,666478
12.9346,648495
12.9394,648682
12.9442,666865
12.9489,656204
12.9537,684514
12.9585,655533
12.9632,664721
12.968,616714
12.9727,662826
12.9775,637631
12.9823,630254
12.987,673122
12.9918,658260
12.9965,645039
13.0013,704472
13.0061,668083
13.0108,650344
13.0156,702004
13.0204,664762
13.0251,672354
13.0299,716766
13.0346,670958
13.0394,672742
13.0442,681209
13.0489,681117
13.0537,738971
13.0585,848589
13.0632,963964
13.068,1194286
13.0727,1350516
13.0775,1367128
13.0823,1314026
13.087,1185502
13.0918,1011023
13.0966,878979
13.1013,808752
13.1061,769193
13.1108,699939
13.1156,713219
13.1204,704989
13.1251,770989
13.1299,788826
13.1346,773891
13.1394,798537
13.1442,782397
13.1489,753169
13.1537,761247
13.1585,793896
13.1632,777130
13.168,782867
13.1727,802042
13.1775,757926
13.1823,723499
13.187,703700
13.1918,768443
13.1966,865091
13.2013,925491
13.2061,1004361
13.2108,1034740
13.2156,1071200
13.2204,1021298
13.2251,917410
13.2299,822092
13.2346,748970
13.2394,712451
13.2442,712229
13.2489,722470
13.2537,703688
13.2585,725165
13.2632,718211
13.268,715206
13.2727,701393
13.2775,736002
13.2823,739245
13.287,718019
13.2918,748458
13.2966,713467
13.3013,720047
13.3061,711285
13.3108,677432
13.3156,685431
13.3204,711632
13.3251,714876
13.3299,724538
13.3346,704777
13.3394,726009
13.3442,697808
13.3489,717903
13.3537,723043
13.3585,696730
13.3632,706844
13.368,703371
13.3727,669659
13.3775,705124
13.3823,694038
13.387,698146
13.3918,721475
13.3966,696605
13.4013,706523
13.4061,680369
13.4108,699352
13.4156,730948
13.4204,728185
13.4251,774509
13.4299,811893
13.4347,796371
13.4394,835089
13.4442,787142
13.4489,773362
13.4537,753239
13.4585,713893
13.4632,719303
13.468,737425
13.4727,740523
13.4775,766729
13.4823,776958
13.487,761937
13.4918,793373
13.4966,794625
13.5013,878732
13.5061,998988
13.5108,1098292
13.5156,1091865
13.5204,1037119
13.5251,907762
13.5299,846546
13.5347,777694
13.5394,726633
13.5442,692829
13.5489,733806
13.5537,673885
13.5585,698553
13.5632,714051
13.568,704090
13.5727,730176
13.5775,703183
13.5823,736659
13.587,671929
13.5918,700235
13.5966,715806
13.6013,731536
13.6061,716650
13.6108,721646
13.6156,718245
13.6204,723003
13.6251,730656
13.6299,729556
13.6347,746479
13.6394,750906
13.6442,733077
13.6489,739066
13.6537,750144
13.6585,733369
13.6632,731933
13.668,730570
13.6727,667869
13.6775,704404
13.6823,685910
13.687,669338
13.6918,687151
13.6966,657173
13.7013,675031
13.7061,701801
13.7108,700139
13.7156,673904
13.7204,721090
13.7251,720639
13.7299,722552
13.7347,688614
13.7394,685243
13.7442,695762
13.7489,727342
13.7537,705699
13.7585,710475
13.7632,714728
13.768,714397
13.7728,759898
13.7775,739431
13.7823,703691
13.787,729247
13.7918,715877
13.7966,721733
13.8013,685425
13.8061,654828
13.8108,666758
13.8156,706641
13.8204,697997
13.8251,697919
13.8299,704085
13.8347,694542
13.8394,684925
13.8442,684474
13.8489,671368
13.8537,696625
13.8585,737871
13.8632,764471
13.868,803290
13.8728,850132
13.8775,846823
13.8823,869404
13.887,856837
13.8918,835849
13.8966,851237
13.9013,887326
13.9061,932648
13.9108,896699
13.9156,901992
13.9204,822030
13.9251,830145
13.9299,774846
13.9347,782847
13.9394,738849
13.9442,765899
13.9489,745211
13.9537,758387
13.9585,715418
13.9632,767586
13.968,743910
13.9728,766643
13.9775,739115
13.9823,796612
13.987,791883
13.9918,842591
13.9966,817041
14.0013,816124
14.0061,790081
14.0108,772527
14.0156,766439
14.0204,763033
14.0251,740102
14.0299,755953
14.0347,774215
14.0394,812975
14.0442,1006534
14.0489,1200062
14.0537,1379114
14.0585,1579578
14.0632,1587559
14.068,1421519
14.0728,1199105
14.0775,1022228
14.0823,901958
14.087,850597
14.0918,792788
14.0966,809615
14.1013,798609
14.1061,818621
14.1109,771964
14.1156,755562
14.1204,735930
14.1251,784191
14.1299,778051
14.1347,761682
14.1394,802790
14.1442,817889
14.1489,901336
14.1537,941082
14.1585,1016696
14.1632,1005917
14.168,949307
14.1728,891216
14.1775,845273
14.1823,782505
14.187,798501
14.1918,803896
14.1966,832475
14.2013,887781
14.2061,947085
14.2109,925272
14.2156,935605
14.2204,912552
14.2251,942068
14.2299,983351
14.2347,1162226
14.2394,1247176
14.2442,1280073
14.2489,1223022
14.2537,1063745
14.2585,966419
14.2632,951245
14.268,913291
14.2728,865391
14.2775,823810
14.2823,862902
14.287,750694
14.2918,840187
14.2966,762511
14.3013,772565
14.3061,786002
14.3109,780883
14.3156,801143
14.3204,771969
14.3251,795558
14.3299,828499
14.3347,873609
14.3394,859215
14.3442,849716
14.3489,818265
14.3537,818130
14.3585,799591
14.3632,862656
14.368,892511
14.3728,1004291
14.3775,1098203
14.3823,1208280
14.387,1293248
14.3918,1400582
14.3966,1524239
14.4013,1556781
14.4061,1485085
14.4109,1314977
14.4156,1141453
14.4204,993552
14.4251,884195
14.4299,878564
14.4347,871672
14.4394,858220
14.4442,858977
14.449,875069
14.4537,837779
14.4585,882033
14.4632,845299
14.468,833414
14.4728,826314
14.4775,838383
14.4823,825574
14.487,896769
14.4918,894038
14.4966,873946
14.5013,876165
14.5061,840299
14.5109,828803
14.5156,835540
14.5204,831423
14.5251,866657
14.5299,816789
14.5347,843316
14.5394,850041
14.5442,825929
14.549,848039
14.5537,828828
14.5585,829266
14.5632,830474
14.568,815424
14.5728,820789
14.5775,822806
14.5823,808519
14.587,853203
14.5918,846018
14.5966,805622
14.6013,858742
14.6061,803245
14.6109,816953
14.6156,797324
14.6204,812151
14.6251,847168
14.6299,844545
14.6347,842085
14.6394,782149
14.6442,796167
14.649,833348
14.6537,820581
14.6585,839549
14.6632,847269
14.668,837061
14.6728,850177
14.6775,861189
14.6823,872457
14.687,864245
14.6918,856538
14.6966,915760
14.7013,853246
14.7061,854404
14.7109,830607
14.7156,860135
14.7204,862654
14.7251,876797
14.7299,798727
14.7347,853609
14.7394,857455
14.7442,885731
14.749,894689
14.7537,883325
14.7585,877367
14.7632,918747
14.768,903139
14.7728,895763
14.7775,858251
14.7823,821929
14.7871,840200
14.7918,846725
14.7966,836673
14.8013,790756
14.8061,819932
14.8109,808031
14.8156,795392
14.8204,850675
14.8251,799228
14.8299,853559
14.8347,835301
14.8394,829279
14.8442,844415
14.849,855271
14.8537,836122
14.8585,805668
14.8632,829023
14.868,839025
14.8728,812634
14.8775,810018
14.8823,813707
14.8871,799315
14.8918,770698
14.8966,796290
14.9013,808607
14.9061,788495
14.9109,787273
14.9156,805985
14.9204,812688
14.9251,815969
14.9299,813134
14.9347,810881
14.9394,804127
14.9442,841323
14.949,801275
14.9537,855101
14.9585,796300
14.9632,790547
14.968,783325
14.9728,813919
14.9775,835954
14.9823,813034
14.9871,789386
14.9918,838287
14.9966,818005
15.0013,802784
15.0061,806238
15.0109,811374
15.0156,829270
15.0204,798760
15.0251,811810
15.0299,810090
15.0347,817449
15.0394,835486
15.0442,879025
15.049,848215
15.0537,845908
15.0585,884729
15.0632,791326
15.068,853325
15.0728,815410
15.0775,858224
15.0823,804546
15.0871,862540
15.0918,851339
15.0966,831896
15.1013,833488
15.1061,857048
15.1109,818854
15.1156,865927
15.1204,828310
15.1252,839231
15.1299,821126
15.1347,819100
15.1394,840195
15.1442,834205
15.149,815101
15.1537,858487
15.1585,830111
15.1632,868424
15.168,855589
15.1728,865267
15.1775,898396
15.1823,884226
15.1871,896868
15.1918,921266
15.1966,911446
15.2013,924531
15.2061,921807
15.2109,918159
15.2156,965827
15.2204,1050338
15.2252,1071474
15.2299,1153129
15.2347,1122847
15.2394,1111855
15.2442,1026414
15.249,1016865
15.2537,964611
15.2585,926542
15.2632,931877
15.268,899438
15.2728,885000
15.2775,900750
15.2823,882606
15.2871,908922
15.2918,868306
15.2966,896445
15.3013,923956
15.3061,864136
15.3109,874219
15.3156,871313
15.3204,838507
15.3252,914209
15.3299,861712
15.3347,885343
15.3394,895719
15.3442,856397
15.349,863492
15.3537,885599
15.3585,880060
15.3632,885430
15.368,842149
15.3728,850806
15.3775,874864
15.3823,879723
15.3871,875933
15.3918,821363
15.3966,845953
15.4013,884918
15.4061,871977
15.4109,897251
15.4156,852501
15.4204,897407
15.4252,914777
15.4299,919678
15.4347,898260
15.4394,882663
15.4442,880370
15.449,874379
15.4537,908731
15.4585,892175
15.4633,883263
15.468,923007
15.4728,958674
15.4775,975363
15.4823,977813
15.4871,957268
15.4918,921407
15.4966,866682
15.5013,886721
15.5061,891683
15.5109,884357
15.5156,860175
15.5204,911214
15.5252,1004660
15.5299,1015915
15.5347,1103111
15.5394,1054831
15.5442,1057922
15.549,1026033
15.5537,1014904
15.5585,973413
15.5633,929285
15.568,946402
15.5728,927673
15.5775,948644
15.5823,881987
15.5871,948374
15.5918,910029
15.5966,866082
15.6013,868790
15.6061,927015
15.6109,927974
15.6156,918782
15.6204,898013
15.6252,946326
15.6299,962392
15.6347,909546
15.6394,949240
15.6442,984130
15.649,914872
15.6537,967472
15.6585,940160
15.6633,964411
15.668,947741
15.6728,936948
15.6775,1024736
15.6823,984997
15.6871,1057486
15.6918,1081346
15.6966,1103052
15.7013,1027896
15.7061,984582
15.7109,989291
15.7156,950057
15.7204,962540
15.7252,988262
15.7299,1046212
15.7347,1085589
15.7394,1085364
15.7442,1171771
15.749,1307306
15.7537,1487733
15.7585,1561570
15.7633,1522442
15.768,1374428
15.7728,1241685
15.7775,1106403
15.7823,1071395
15.7871,1105097
15.7918,1079342
15.7966,1125218
15.8014,1125911
15.8061,1119188
15.8109,1099321
15.8156,1108525
15.8204,1030447
15.8252,1061912
15.8299,1040633
15.8347,1116777
15.8394,1067603
15.8442,1068582
15.849,1123510
15.8537,1169578
15.8585,1170659
15.8633,1250868
15.868,1311910
15.8728,1346933
15.8775,1311305
15.8823,1234157
15.8871,1181368
15.8918,1214269
15.8966,1159731
15.9014,1150376
15.9061,1150833
15.9109,1118277
15.9156,1094129
15.9204,1096687
15.9252,1125297
15.9299,1088340
15.9347,1099683
15.9394,1193124
15.9442,1124208
15.949,1158772
15.9537,1167283
15.9585,1177843
15.9633,1166096
15.968,1133605
15.9728,1134026
15.9775,1154585
15.9823,1158184
15.9871,1177394
15.9918,1171331
15.9966,1120937
16.0013,1145397
16.0061,1194234
16.0109,1181180
16.0156,1237528
16.0204,1411163
16.0252,1549888
16.0299,1613782
16.0347,1526553
16.0394,1374359
16.0442,1305973
16.049,1290478
16.0537,1249702
16.0585,1236858
16.0633,1205460
16.068,1287016
16.0728,1222571
16.0775,1233761
16.0823,1254112
16.0871,1230608
16.0918,1243103
16.0966,1268431
16.1014,1286108
16.1061,1313948
16.1109,1400738
16.1156,1403407
16.1204,1469296
16.1252,1458232
16.1299,1373386
16.1347,1355173
16.1395,1384100
16.1442,1316910
16.149,1322330
16.1537,1311618
16.1585,1322381
16.1633,1353060
16.168,1281068
16.1728,1351934
16.1775,1294482
16.1823,1332784
16.1871,1294783
16.1918,1355668
16.1966,1275102
16.2014,1344009
16.2061,1354068
16.2109,1376193
16.2156,1366137
16.2204,1388814
16.2251,1389841
16.2299,1404532
16.2347,1349899
16.2395,1402186
16.2442,1384639
16.249,1390594
16.2537,1416308
16.2585,1426050
16.2632,1384259
16.268,1412164
16.2728,1427682
16.2775,1407228
16.2823,1422037
16.2871,1442514
16.2918,1480428
16.2966,1438725
16.3013,1445138
16.3061,1431714
16.3109,1460108
16.3156,1485681
16.3204,1507717
16.3252,1472124
16.3299,1481232
16.3347,1517226
16.3394,1516882
16.3442,1479947
16.349,1537950
16.3537,1527728
16.3585,1517911
16.3633,1626313
16.368,1643093
16.3728,1778115
16.3775,1759739
16.3823,1792887
16.3871,1721819
16.3918,1764781
16.3966,1877127
16.4014,1901798
16.4061,2002144
16.4109,2112092
16.4156,2231792
16.4204,2191725
16.4252,1998432
16.4299,1851713
16.4347,1728128
16.4395,1835292
16.4442,2160094
16.449,3084920
16.4537,4637907
16.4585,6443254
16.4632,6443003
16.468,5010531
16.4728,3516770
16.4776,2514540
16.4823,2137765
16.4871,2007049
16.4918,1939458
16.4966,1900326
16.5013,1860447
16.5061,1880516
16.5109,1904754
16.5156,1846144
16.5204,1901541
16.5252,1931221
16.5299,1896148
16.5347,1899246
16.5394,1893056
16.5442,1865679
16.549,1882247
16.5537,1868506
16.5585,1911726
16.5633,1915994
16.568,1874722
16.5728,1954831
16.5775,1946272
16.5823,1876269
16.5871,1929919
16.5918,1910516
16.5966,1959492
16.6014,1925616
16.6061,1945627
16.6109,1930995
16.6156,2039636
16.6204,2048875
16.6252,2053197
16.6299,2064918
16.6347,1982342
16.6395,1961990
16.6442,1985362
16.649,2067500
16.6537,2031274
16.6585,2007655
16.6633,2020786
16.668,2119319
16.6728,2010733
16.6776,2067530
16.6823,2013683
16.6871,2086298
16.6918,2033015
16.6966,2036361
16.7014,2025867
16.7061,2082754
16.7109,2075430
16.7156,2092783
16.7204,2038762
16.7252,2104695
16.7299,2029626
16.7347,2066189
16.7395,2083765
16.7442,2105356
16.749,2121335
16.7537,2157577
16.7585,2152463
16.7633,2116408
16.768,2152945
16.7728,2111002
16.7776,2121407
16.7823,2083214
16.7871,2118061
16.7918,2172711
16.7966,2225396
16.8013,2200797
16.8061,2270759
16.8109,2316270
16.8157,2241015
16.8204,2262341
16.8252,2189359
16.8299,2227239
16.8347,2229949
16.8394,2245398
16.8442,2273399
16.849,2286095
16.8537,2274776
16.8585,2323332
16.8633,2448927
16.868,2327862
16.8728,2332172
16.8775,2288848
16.8823,2314580
16.8871,2225590
16.8918,2226196
16.8966,2284077
16.9014,2290675
16.9061,2311297
16.9109,2269318
16.9156,2371384
16.9204,2385827
16.9252,2403966
16.9299,2452143
16.9347,2411657
16.9395,2413478
16.9442,2371170
16.949,2454847
16.9537,2455065
16.9585,2342157
16.9633,2366514
16.968,2421237
16.9728,2453593
16.9776,2505396
16.9823,2590813
16.9871,2609566
16.9918,2553358
16.9966,2532177
17.0014,2484519
17.0061,2482488
17.0109,2730063
17.0157,2881127
17.0204,2925121
17.0252,2847183
17.0299,2630657
17.0347,2465292
17.0394,2492114
17.0442,2503045
17.049,2552538
17.0537,2457141
17.0585,2522070
17.0633,2533788
17.068,2489592
17.0728,2484307
17.0775,2546467
17.0823,2577428
17.0871,2472353
17.0918,2512771
17.0966,2516414
17.1014,2487815
17.1061,2534792
17.1109,2515093
17.1156,2544229
17.1204,2612573
17.1252,2741000
17.1299,3102520
17.1347,4358789
17.1395,6714788
17.1442,9280242
17.149,9797522
17.1537,7765611
17.1585,5431774
17.1633,3920345
17.168,3192851
17.1728,2914142
17.1776,2866732
17.1823,2755709
17.1871,2775568
17.1918,2731986
17.1966,2800549
17.2014,2687705
17.2061,2739793
17.2109,2729087
17.2157,2751599
17.2204,2678918
17.2252,2674937
17.2299,2645723
17.2347,2702389
17.2395,2722030
17.2442,2710742
17.249,2661195
17.2538,2705868
17.2585,2674362
17.2633,2696316
17.268,2701693
17.2728,2755343
17.2776,2760243
17.2823,2711356
17.2871,2734111
17.2918,2815798
17.2966,2821463
17.3014,3273571
17.3061,4444221
17.3109,7051729
17.3157,10126727
17.3204,11793347
17.3252,10119318
17.3299,6923948
17.3347,4692505
17.3395,3767426
17.3442,3324565
17.349,3118053
17.3538,2939015
17.3585,2946683
17.3633,2959496
17.368,2874632
17.3728,2913427
17.3775,2782582
17.3823,2791006
17.3871,2848299
17.3918,2843354
17.3966,2802727
17.4014,2844854
17.4061,2830351
17.4109,2864426
17.4156,2771899
17.4204,2763732
17.4252,2744322
17.4299,2808983
17.4347,2828632
17.4395,2838263
17.4442,2819778
17.449,2804440
17.4537,2846092
17.4585,2823352
17.4633,2843737
17.468,2890149
17.4728,2947806
17.4776,2904731
17.4823,2777986
17.4871,2945363
17.4918,2972124
17.4966,2907212
17.5014,2886967
17.5061,2940413
17.5109,2857460
17.5157,2898208
17.5204,2853799
17.5252,2850289
17.5299,2908597
17.5347,2915811
17.5395,2875215
17.5442,2826597
17.549,2913368
17.5538,2883075
17.5585,2836228
17.5633,2861098
17.568,2834113
17.5728,2937136
17.5776,2878549
17.5823,2911898
17.5871,2933413
17.5919,2937512
17.5966,3015546
17.6014,3228103
17.6061,3266059
17.6109,3346793
17.6157,3328017
17.6204,3098376
17.6252,2944463
17.6299,2916039
17.6347,2986319
17.6395,2951284
17.6442,3470447
17.649,5229611
17.6538,9799942
17.6585,19105394
17.6633,29913206
17.668,34310344
17.6728,28580178
17.6776,18796882
17.6823,10729776
17.6871,6845284
17.6919,5050308
17.6966,4264050
17.7014,3838704
17.7061,3617624
17.7109,3491678
17.7157,3443133
17.7204,3323488
17.7252,3287086
17.7299,3187857
17.7347,3177268
17.7395,3235600
17.7442,3221849
17.749,3191345
17.7538,3048929
17.7585,3044952
17.7633,3108879
17.768,3156273
17.7728,3252115
17.7776,3496126
17.7823,4044569
17.7871,4417253
17.7919,4532537
17.7966,4313240
17.8014,3911591
17.8061,3608966
17.8109,3337578
17.8157,3136810
17.8204,3191278
17.8252,3147645
17.8299,3086467
17.8347,3086155
17.8395,3094174
17.8442,3015479
17.849,2981326
17.8538,2979953
17.8585,3109242
17.8633,2999259
17.868,2925337
17.8728,3080979
17.8776,3198992
17.8823,3191361
17.8871,3202173
17.8919,3235732
17.8966,3266634
17.9014,3258858
17.9061,3268894
17.9109,3432873
17.9156,3626934
17.9204,3808462
17.9252,3621304
17.93,3583766
17.9347,3397774
17.9395,3246484
17.9442,3182211
17.949,3156245
17.9537,3171432
17.9585,3211027
17.9633,3157578
17.968,3105958
17.9728,3127023
17.9776,3093459
17.9823,3135986
17.9871,3076550
17.9918,3076301
17.9966,3021363
18.0014,3019531
18.0061,3017899
18.0109,3041195
18.0157,3074031
18.0204,3073274
18.0252,3131587
18.0299,3049731
18.0347,3130662
18.0395,3052533
18.0442,2984008
18.049,3076496
18.0538,3035327
18.0585,2979174
18.0633,3002673
18.068,3118788
18.0728,3313115
18.0776,4346885
18.0823,7353426
18.0871,15271594
18.0919,29640494
18.0966,48168176
18.1014,58784244
18.1061,51850164
18.1109,36553392
18.1157,22060924
18.1204,13308229
18.1252,8720660
18.13,6471820
18.1347,5545982
18.1395,5031516
18.1442,4787955
18.149,4887876
18.1538,5396350
18.1585,5843304
18.1633,6131540
18.168,5887757
18.1728,5208396
18.1776,4516655
18.1823,4104562
18.1871,3796037
18.1919,3678266
18.1966,3612333
18.2014,3457591
18.2061,3472729
18.2109,3356574
18.2157,3322924
18.2204,3237278
18.2252,3293199
18.23,3317039
18.2347,3274532
18.2395,3195684
18.2442,3210412
18.249,3228655
18.2538,3212660
18.2585,3190586
18.2633,3245876
18.2681,3509131
18.2728,4238230
18.2776,6566306
18.2823,11718654
18.2871,20132774
18.2919,30025568
18.2966,34266132
18.3014,30387548
18.3061,22501432
18.3109,14659518
18.3157,9857602
18.3204,7088451
18.3252,5677375
18.33,4912090
18.3347,4489246
18.3395,4148175
18.3442,3996404
18.349,3796481
18.3538,3707466
18.3585,3665478
18.3633,3577486
18.3681,3496724
18.3728,3451358
18.3776,3441545
18.3823,3403034
18.3871,3275206
18.3919,3335203
18.3966,3346679
18.4014,3250062
18.4061,3267344
18.4109,3294908
18.4157,3230733
18.4204,3121302
18.4252,3212162
18.43,3198302
18.4347,3135820
18.4395,3202820
18.4442,3111324
18.449,3168967
18.4538,3162076
18.4585,3186642
18.4633,3169913
18.4681,3116108
18.4728,3196624
18.4776,3172458
18.4823,3208560
18.4871,3109638
18.4918,3095456
18.4966,3069910
18.5014,3071080
18.5061,3122991
18.5109,3081003
18.5157,3121413
18.5204,3122512
18.5252,3147220
18.5299,3077732
18.5347,3077822
18.5395,3126717
18.5442,3176408
18.549,3089230
18.5538,3141419
18.5585,3131032
18.5633,3128991
18.568,3114722
18.5728,3110967
18.5776,3183409
18.5823,3094011
18.5871,3111649
18.5919,3124429
18.5966,3084028
18.6014,3058009
18.6062,3158747
18.6109,3077020
18.6157,3270671
18.6204,3300937
18.6252,3329988
18.63,3414099
18.6347,3585782
18.6395,3523560
18.6442,3456710
18.649,3417761
18.6538,3335787
18.6585,3226878
18.6633,3080519
18.6681,3202400
18.6728,3209109
18.6776,3475665
18.6823,4236923
18.6871,6077889
18.6919,9875175
18.6966,14903809
18.7014,20702962
18.7062,24449274
18.7109,24509522
18.7157,20711030
18.7204,14689496
18.7252,9970231
18.73,7244794
18.7347,5496795
18.7395,4749293
18.7442,4251583
18.749,3951618
18.7538,3778482
18.7585,3694509
18.7633,3540169
18.7681,3429740
18.7728,3430214
18.7776,3404059
18.7823,3333749
18.7871,3280471
18.7919,3281526
18.7966,3310813
18.8014,3217702
18.8062,3215641
18.8109,3208595
18.8157,3226462
18.8204,3156493
18.8252,3263670
18.83,3291789
18.8347,3416461
18.8395,3709929
18.8442,3967203
18.849,4264073
18.8538,4439931
18.8585,4333798
18.8633,4109688
18.8681,3891054
18.8728,3515603
18.8776,3394895
18.8823,3402552
18.8871,3304669
18.8919,3227988
18.8966,3206584
18.9014,3078864
18.9062,3236161
18.9109,3133757
18.9157,3105546
18.9204,3135805
18.9252,3187475
18.93,3154606
18.9347,3145462
18.9395,3156064
18.9443,3154114
18.949,3151450
18.9538,3134912
18.9585,3168019
18.9633,3067335
18.9681,3024692
18.9728,3133105
18.9776,3109163
18.9823,3097308
18.9871,3071668
18.9919,3125112
18.9966,3086072
19.0014,3098059
19.0062,3003058
19.0109,3057203
19.0157,3111019
19.0204,3068783
19.0252,3061349
19.0299,3119195
19.0347,3128553
19.0395,3255186
19.0443,3126768
19.049,3190760
19.0538,3160365
19.0585,3126232
19.0633,3201339
19.068,3172002
19.0728,3066593
19.0776,3141799
19.0823,3035214
19.0871,3047509
19.0919,3054989
19.0966,3116319
19.1014,3134539
19.1062,3043252
19.1109,3028214
19.1157,3047651
19.1204,3078350
19.1252,3011874
19.13,3049973
19.1347,3090626
19.1395,3101521
19.1443,3014520
19.149,3041853
19.1538,3131104
19.1585,3080819
19.1633,3017648
19.1681,3032786
19.1728,3095295
19.1776,2990369
19.1823,3110157
19.1871,3136639
19.1919,3173551
19.1966,3139590
19.2014,3306935
19.2062,3494086
19.2109,4210434
19.2157,5286460
19.2204,7056088
19.2252,9882813
19.23,12079806
19.2347,13523252
19.2395,13068051
19.2443,11537206
19.249,9031369
19.2538,6924105
19.2585,5527580
19.2633,4637750
19.2681,4127660
19.2728,3837205
19.2776,3647675
19.2824,3533472
19.2871,3449502
19.2919,3418769
19.2966,3443604
19.3014,3527093
19.3062,3699960
19.3109,3746605
19.3157,3794112
19.3204,3785810
19.3252,3705262
19.33,3550522
19.3347,3440528
19.3395,3266986
19.3443,3214830
19.349,3128974
19.3538,3154460
19.3585,3106988
19.3633,3125540
19.3681,3156420
19.3728,3109424
19.3776,3068981
19.3824,3118635
19.3871,3014992
19.3919,3110341
19.3966,2992351
19.4014,3056644
19.4062,3081207
19.4109,2990032
19.4157,3093962
19.4204,3107200
19.4252,3054665
19.43,3084879
19.4347,3130648
19.4395,3095008
19.4443,3151082
19.449,3239292
19.4538,3486890
19.4585,3920843
19.4633,4690690
19.4681,6078715
19.4728,7913725
19.4776,9775653
19.4824,10746204
19.4871,10877015
19.4919,9713458
19.4966,8310667
19.5014,6776065
19.5062,5437951
19.5109,4623246
19.5157,4143379
19.5204,3756278
19.5252,3593583
19.53,3494799
19.5347,3356950
19.5395,3232931
19.5443,3287105
19.549,3300236
19.5538,3286190
19.5585,3228599
19.5633,3157820
19.5681,3130534
19.5728,3152075
19.5776,3161702
19.5824,3077961
19.5871,3118241
19.5919,3072636
19.5966,3074369
19.6014,3187175
19.6062,3121789
19.6109,3124542
19.6157,3087826
19.6205,3035605
19.6252,3017917
19.63,3002683
19.6347,3086816
19.6395,3102102
19.6443,3039900
19.649,3058044
19.6538,3010319
19.6585,3002993
19.6633,3079508
19.6681,3119440
19.6728,3083776
19.6776,3006835
19.6824,3090622
19.6871,3023754
19.6919,3057772
19.6966,3022344
19.7014,3039115
19.7062,3012482
19.7109,3073997
19.7157,3069774
19.7205,3027989
19.7252,3014622
19.73,3038143
19.7347,3029818
19.7395,3000491
19.7443,3056327
19.749,3054786
19.7538,3088741
19.7585,2965989
19.7633,3013852
19.7681,2963058
19.7728,3046115
19.7776,3005560
19.7824,3030269
19.7871,3004528
19.7919,2996427
19.7966,3015485
19.8014,3006023
19.8062,3028818
19.8109,2980082
19.8157,3001136
19.8205,3036123
19.8252,3002693
19.83,3073343
19.8347,3005297
19.8395,3071582
19.8443,3074828
19.849,3029760
19.8538,2979010
19.8585,3045588
19.8633,3005593
19.8681,3008364
19.8728,3009789
19.8776,2967850
19.8824,2985904
19.8871,3003691
19.8919,2959388
19.8966,3081359
19.9014,3009609
19.9062,3074374
19.9109,3042746
19.9157,3023815
19.9205,3105505
19.9252,3052118
19.93,3060562
19.9347,3056667
19.9395,3061232
19.9443,3029280
19.949,3017675
19.9538,3027090
19.9586,2957321
19.9633,2976567
19.9681,2953745
19.9728,3066619
19.9776,3101775
19.9824,3028429
19.9871,3118532
19.9919,3133083
19.9966,3264735
20.0014,3425742
20.0062,3563769
20.0109,3697199
20.0157,3685349
20.0205,3662973
20.0252,3542963
20.03,3454849
20.0347,3315835
20.0395,3174305
20.0443,3159648
20.049,3079527
20.0538,3050445
20.0586,3040102
20.0633,3104603
20.0681,2977096
20.0728,3072303
20.0776,2967459
20.0824,2980737
20.0871,3011364
20.0919,3001909
20.0966,3003404
20.1014,2981804
20.1062,2984739
20.1109,3013446
20.1157,3007432
20.1205,3043782
20.1252,3005506
20.13,2988641
20.1347,3002054
20.1395,2975175
20.1443,2940959
20.149,2990363
20.1538,2979830
20.1586,2968649
20.1633,2999053
20.1681,2987403
20.1728,2950642
20.1776,3004349
20.1824,3081430
20.1871,3069057
20.1919,3080420
20.1966,3093464
20.2014,3075689
20.2062,3094793
20.2109,3109243
20.2157,3124646
20.2205,3152973
20.2252,3076999
20.23,3028989
20.2347,2986534
20.2395,2983434
20.2443,2924185
20.249,3040171
20.2538,3004224
20.2586,2976190
20.2633,3020471
20.2681,3041442
20.2728,2936860
20.2776,2953383
20.2824,2968953
20.2871,3058859
20.2919,3018447
20.2967,2943734
20.3014,2959936
20.3062,3009202
20.3109,3021590
20.3157,2954398
20.3205,3015315
20.3252,3052880
20.33,2988609
20.3347,2983305
20.3395,2905590
20.3443,2969959
20.349,2997856
20.3538,2920168
20.3586,2964688
20.3633,3003420
20.3681,2937630
20.3728,2983735
20.3776,2981988
20.3824,2961465
20.3871,2992269
20.3919,2944768
20.3967,3005520
20.4014,2916794
20.4062,2955994
20.4109,2950971
20.4157,2986697
20.4205,2967260
20.4252,3039879
20.43,2967182
20.4347,2978748
20.4395,2935562
20.4443,2972284
20.449,2892426
20.4538,2914816
20.4586,2969173
20.4633,2964001
20.4681,2905650
20.4728,2820262
20.4776,2903721
20.4824,2938582
20.4871,3007701
20.4919,2951034
20.4967,2900608
20.5014,2933666
20.5062,2973628
20.5109,3036077
20.5157,3048381
20.5205,2987311
20.5252,3014937
20.53,2993635
20.5347,2973311
20.5395,2960911
20.5443,2897139
20.549,2993125
20.5538,3016939
20.5586,2914441
20.5633,2946132
20.5681,2949294
20.5728,2928202
20.5776,2950816
20.5824,2931604
20.5871,2925731
20.5919,2974829
20.5967,2910004
20.6014,2959355
20.6062,2997537
20.6109,2928001
20.6157,2986745
20.6205,2945796
20.6252,2912677
20.63,3003098
20.6348,2997991
20.6395,2912513
20.6443,2984243
20.649,2921607
20.6538,2912937
20.6586,2956824
20.6633,2968023
20.6681,2943889
20.6728,2970729
20.6776,3042459
20.6824,3011342
20.6871,3035499
20.6919,3100677
20.6967,2986387
20.7014,3045723
20.7062,3150451
20.7109,3091284
20.7157,3068510
20.7205,3112655
20.7252,3028591
20.73,3086251
20.7348,3087721
20.7395,3083395
20.7443,2955970
20.749,3003931
20.7538,2921327
20.7586,2891416
20.7633,2980596
20.7681,2993626
20.7728,2907511
20.7776,2985405
20.7824,2999826
20.7871,2930905
20.7919,2952089
20.7967,2987422
20.8014,2930166
20.8062,2916935
20.8109,2977548
20.8157,2935188
20.8205,2987358
20.8252,2936858
20.83,2931836
20.8348,2951781
20.8395,2999994
20.8443,2933513
20.849,2953122
20.8538,2950717
20.8586,2971065
20.8633,2899469
20.8681,2935024
20.8728,2986421
20.8776,2906844
20.8824,2956859
20.8871,2956717
20.8919,2952912
20.8967,2949233
20.9014,2865094
20.9062,2912728
20.9109,2891347
20.9157,2914669
20.9205,2917634
20.9252,2938894
20.93,2983782
20.9348,2922427
20.9395,2936770
20.9443,2872685
20.949,2991542
20.9538,2921941
20.9586,2953784
20.9633,2895318
20.9681,2959584
20.9729,2876949
20.9776,2944748
20.9824,2919711
20.9871,2989794
20.9919,2982371
20.9967,2969849
21.0014,2917528
21.0062,2959206
21.0109,2914964
21.0157,2935803
21.0205,2983763
21.0252,3021970
21.03,2983571
21.0348,3055090
21.0395,3142693
21.0443,3083073
21.049,3064651
21.0538,3077229
21.0586,2989260
21.0633,3017095
21.0681,3028472
21.0729,3110215
21.0776,3043718
21.0824,3012620
21.0871,2923442
21.0919,2956949
21.0967,2893376
21.1014,2980831
21.1062,2863214
21.1109,2971577
21.1157,2972441
21.1205,2964089
21.1252,2895520
21.13,2887038
21.1348,3008175
21.1395,2945831
21.1443,2881904
21.149,2944098
21.1538,3018869
21.1586,2967034
21.1633,2922548
21.1681,2830235
21.1729,2948125
21.1776,2921097
21.1824,2957293
21.1871,2919425
21.1919,2945457
21.1967,2974207
21.2014,2886883
21.2062,2949499
21.2109,2849415
21.2157,2901608
21.2205,2871464
21.2252,2850935
21.23,2886873
21.2348,2923757
21.2395,2952099
21.2443,2919639
21.249,2814406
21.2538,2880920
21.2586,2976559
21.2633,2896547
21.2681,2891387
21.2729,2903755
21.2776,3062677
21.2824,2953015
21.2871,2865019
21.2919,2880442
21.2967,2952795
21.3014,2936362
21.3062,2841947
21.311,2869619
21.3157,2878194
21.3205,2934388
21.3252,2959277
21.33,2847526
21.3348,2874384
21.3395,2918597
21.3443,2893964
21.349,2895379
21.3538,2929500
21.3586,2881530
21.3633,2893254
21.3681,2895685
21.3729,2947596
21.3776,2963092
21.3824,2911088
21.3871,2911971
21.3919,2918128
21.3967,2951642
21.4014,2847648
21.4062,2898218
21.411,2909890
21.4157,2899789
21.4205,2821799
21.4252,2947326
21.43,2881725
21.4348,3013511
21.4395,2900781
21.4443,2894396
21.449,2935869
21.4538,2902023
21.4586,2877242
21.4633,2968099
21.4681,2931693
21.4729,2837355
21.4776,2982789
21.4824,2887484
21.4871,2916124
21.4919,2889305
21.4967,2897062
