D:\DATA\HAMBERGER\NICK\20230701\20230701_6-7-23_NBenthi_02.D  2 Jul 23   4:12 am
Start of data points
4.0916,2673785
4.09637,2822334
4.10112,2557825
4.10588,2564388
4.11065,2612267
4.11542,2718124
4.12017,2735507
4.12493,2776343
4.1297,2735177
4.13445,2694522
4.13922,2611217
4.14398,2571383
4.14875,2494365
4.1535,2479696
4.15827,2406938
4.16303,2400147
4.1678,2344101
4.17255,2304047
4.17732,2348025
4.18208,2354530
4.18683,2318297
4.1916,2350976
4.19637,2387268
4.20113,2252164
4.20588,2182434
4.21065,2172891
4.21542,2100422
4.22017,2071051
4.22493,2023354
4.2297,2008438
4.23447,2139362
4.23922,2134955
4.24398,2128024
4.24875,2163285
4.2535,2042375
4.25827,2124779
4.26303,2099296
4.2678,1997173
4.27255,1985947
4.27732,1980983
4.28208,2353857
4.28683,2869065
4.2916,2702975
4.29637,2064805
4.30113,1893808
4.30588,1849978
4.31065,1841597
4.31542,1817536
4.32018,1850625
4.32493,1878204
4.3297,1848875
4.33447,1985683
4.33922,1940040
4.34398,1847674
4.34875,1828398
4.35352,1814127
4.35827,2050176
4.36303,2231863
4.3678,2249809
4.37255,2192668
4.37732,2122431
4.38208,2105813
4.38685,2028995
4.3916,2045488
4.39637,2099324
4.40113,1958985
4.40588,1839905
4.41065,1862562
4.41542,1915959
4.42018,1953341
4.42493,1974431
4.4297,1909246
4.43447,1880543
4.43922,1860684
4.44398,1848478
4.44875,1753380
4.45352,1758207
4.45827,1753869
4.46303,1719911
4.4678,1676045
4.47255,1752616
4.47732,1748049
4.48208,1785472
4.48685,1683284
4.4916,1690681
4.49637,1799020
4.50113,1737004
4.5059,1737439
4.51065,1660862
4.51542,1705233
4.52018,1778249
4.52493,1890905
4.5297,1728790
4.53447,1664672
4.53923,1638754
4.54398,1716134
4.54875,1792820
4.55352,1717855
4.55827,1750234
4.56303,1734915
4.5678,1766989
4.57257,1975621
4.57732,2532385
4.58208,3037669
4.58685,4253598
4.5916,5361089
4.59637,3725007
4.60113,2251164
4.6059,1841573
4.61065,1715476
4.61542,1708103
4.62018,1700572
4.62493,1654418
4.6297,1591017
4.63447,1607075
4.63923,1632817
4.64398,1614894
4.64875,1601531
4.65352,1626699
4.65828,1674431
4.66303,1571873
4.6678,1525927
4.67257,1606764
4.67732,1568152
4.68208,1565594
4.68685,1491194
4.69162,1491013
4.69637,1529589
4.70113,1525061
4.7059,1493682
4.71065,1472554
4.71542,1516530
4.72018,1495869
4.72495,1560328
4.7297,1553725
4.73447,1486539
4.73923,1538616
4.74398,1519890
4.74875,1480788
4.75352,1439145
4.75828,1425129
4.76303,1458065
4.7678,1459849
4.77257,1511335
4.77732,1506178
4.78208,1500155
4.78685,1599166
4.79162,1598739
4.79637,1662855
4.80113,1652962
4.8059,1684834
4.81065,1677537
4.81542,1650045
4.82018,1666633
4.82495,1716732
4.8297,1714196
4.83447,1696945
4.83923,1696574
4.844,1646565
4.84875,1710700
4.85352,1707166
4.85828,1699708
4.86303,1660145
4.8678,1647635
4.87257,1684358
4.87733,1678080
4.88208,1620945
4.88685,1622021
4.89162,1612444
4.89637,1612978
4.90113,1665030
4.9059,1578781
4.91067,1582010
4.91542,1634391
4.92018,1560830
4.92495,1590396
4.9297,1553886
4.93447,1678002
4.93923,1617051
4.944,1586025
4.94875,1538251
4.95352,1529193
4.95828,1530858
4.96303,1488728
4.9678,1524869
4.97257,1469794
4.97733,1479177
4.98208,1472792
4.98685,1502148
4.99162,1500061
4.99637,1544956
5.00113,1511068
5.0059,1402492
5.01067,1459076
5.01542,1436717
5.02018,1464688
5.02495,1410700
5.02972,1387532
5.03447,1380967
5.03923,1411481
5.044,1406035
5.04875,1386158
5.05352,1493937
5.05828,1428375
5.06305,1456267
5.0678,1417414
5.07257,1405344
5.07733,1431327
5.08208,1365762
5.08685,1446342
5.09162,1372635
5.09638,1395359
5.10113,1404658
5.1059,1352531
5.11067,1356019
5.11542,1318682
5.12018,1324100
5.12495,1352808
5.12972,1403943
5.13447,1483627
5.13923,1419955
5.144,1484480
5.14875,1492561
5.15352,1481412
5.15828,1487454
5.16305,1480484
5.1678,1470371
5.17257,1597184
5.17733,1490745
5.1821,1532879
5.18685,1508918
5.19162,1513253
5.19638,1521559
5.20113,1476722
5.2059,1450707
5.21067,1478727
5.21543,1528098
5.22018,1499759
5.22495,1487517
5.22972,1580540
5.23447,1585533
5.23923,1601170
5.244,1608460
5.24877,1558299
5.25352,2103185
5.25828,4561461
5.26305,8955503
5.2678,9008832
5.27257,5399758
5.27733,3103913
5.2821,2235842
5.28685,1871807
5.29162,1756886
5.29638,1693529
5.30113,1619036
5.3059,1564837
5.31067,1543902
5.31543,1513707
5.32018,1548213
5.32495,1464062
5.32972,1516993
5.33447,1527750
5.33923,1563120
5.344,1559314
5.34877,1495854
5.35352,1504966
5.35828,1536596
5.36305,1460660
5.36782,1437456
5.37257,1443741
5.37733,1456995
5.3821,1445631
5.38685,1452638
5.39162,1425572
5.39638,1431527
5.40115,1489181
5.4059,1455633
5.41067,1527079
5.41543,1493073
5.42018,1547100
5.42495,1612784
5.42972,1643565
5.43448,1622946
5.43923,1606511
5.444,1575856
5.44877,1502591
5.45352,1515857
5.45828,1440462
5.46305,1479399
5.46782,1474780
5.47257,1483687
5.47733,1450712
5.4821,1477916
5.48685,1477332
5.49162,1501252
5.49638,1611116
5.50115,1597354
5.5059,1601374
5.51067,1571920
5.51543,1535680
5.5202,1468776
5.52495,1419895
5.52972,1417276
5.53448,1464471
5.53923,1440827
5.544,1527811
5.54877,1456393
5.55353,1499993
5.55828,1439009
5.56305,1481465
5.56782,1417213
5.57257,1424429
5.57733,1365293
5.5821,1393538
5.58687,1400199
5.59162,1376939
5.59638,1392094
5.60115,1376741
5.6059,1375362
5.61067,1373162
5.61543,1413291
5.6202,1388128
5.62495,1412259
5.62972,1349609
5.63448,1353101
5.63923,1395016
5.644,1467071
5.64877,1389787
5.65353,1380556
5.65828,1393339
5.66305,1438127
5.66782,1413654
5.67257,1402513
5.67733,1364093
5.6821,1374339
5.68687,1381191
5.69162,1366217
5.69638,1386215
5.70115,1364509
5.70592,1348128
5.71067,1352946
5.71543,1460652
5.7202,1366322
5.72495,1401128
5.72972,1381813
5.73448,1416915
5.73925,1424931
5.744,1400460
5.74877,1467752
5.75353,1354133
5.75828,1463193
5.76305,1498648
5.76782,1471025
5.77258,1480124
5.77733,1398874
5.7821,1400029
5.78687,1389710
5.79162,1457099
5.79638,1598050
5.80115,2162962
5.80592,2624710
5.81067,2675902
5.81543,2775355
5.8202,2757210
5.82495,2616238
5.82972,2583095
5.83448,2535190
5.83925,2471549
5.844,2347573
5.84877,2271907
5.85353,2266565
5.85828,2235435
5.86305,2141910
5.86782,2111411
5.87258,2055810
5.87733,1975457
5.8821,2001202
5.88687,2012397
5.89163,2012521
5.89638,1953435
5.90115,1945413
5.90592,1767738
5.91067,1872434
5.91543,1849640
5.9202,1858016
5.92497,1866618
5.92972,1805654
5.93448,1764808
5.93925,1727768
5.944,1739280
5.94877,2007378
5.95353,4032789
5.9583,8529195
5.96305,11264171
5.96782,8488391
5.97258,4855494
5.97733,3008108
5.9821,2308658
5.98687,2006019
5.99163,1965555
5.99638,1806169
6.00115,1736252
6.00592,1596497
6.01067,1620569
6.01543,1522916
6.0202,1577001
6.02497,1518780
6.02972,1536385
6.03448,1457781
6.03925,1492155
6.04402,1484751
6.04877,1486406
6.05353,1513718
6.0583,1477448
6.06305,1426082
6.06782,1428913
6.07258,1461186
6.07735,1482918
6.0821,1502927
6.08687,1466623
6.09163,1417888
6.09638,1392060
6.10115,1376861
6.10592,1353227
6.11068,1398889
6.11543,1432186
6.1202,1383483
6.12497,1333587
6.12972,1328239
6.13448,1445835
6.13925,1579363
6.14402,1815543
6.14877,1921449
6.15353,1866576
6.1583,1624676
6.16305,1468813
6.16782,1442674
6.17258,1483710
6.17735,1441164
6.1821,1456985
6.18687,1400006
6.19163,1395450
6.19638,1426453
6.20115,1402033
6.20592,1373293
6.21068,1394408
6.21543,1324464
6.2202,1381643
6.22497,1386602
6.22973,1448432
6.23448,1570043
6.23925,1622587
6.24402,1628368
6.24877,1471623
6.25353,1392407
6.2583,1380431
6.26307,1314080
6.26782,1303261
6.27258,1284877
6.27735,1272274
6.2821,1253263
6.28687,1251296
6.29163,1273310
6.2964,1213226
6.30115,1278020
6.30592,1269649
6.31068,1260799
6.31543,1257387
6.3202,1307823
6.32497,1268346
6.32973,1256348
6.33448,1210543
6.33925,1264705
6.34402,1193242
6.34877,1227284
6.35353,1200012
6.3583,1224207
6.36307,1209189
6.36782,1232997
6.37258,1240673
6.37735,1235876
6.38212,1179360
6.38687,1192208
6.39163,1176913
6.3964,1235192
6.40115,1246099
6.40592,1256395
6.41068,1294803
6.41545,1394724
6.4202,1327589
6.42497,1265316
6.42973,1279051
6.43448,1243480
6.43925,1223049
6.44402,1186300
6.44878,1174489
6.45353,1135460
6.4583,1216528
6.46307,1117033
6.46782,1132105
6.47258,1164999
6.47735,1178123
6.48212,1191526
6.48687,1100966
6.49163,1153178
6.4964,1179303
6.50115,1143182
6.50592,1154287
6.51068,1162885
6.51545,1136180
6.5202,1144332
6.52497,1173774
6.52973,1168022
6.53448,1199542
6.53925,1195696
6.54402,1223241
6.54878,1168653
6.55353,1156397
6.5583,1108312
6.56307,1134708
6.56783,1136898
6.57258,1159938
6.57735,1096491
6.58212,1158951
6.58687,1131919
6.59163,1139549
6.5964,1145569
6.60117,1139579
6.60592,1095415
6.61068,1138730
6.61545,1088727
6.6202,1079513
6.62497,1110820
6.62973,1132510
6.6345,1130372
6.63925,1155203
6.64402,1151358
6.64878,1131566
6.65353,1174584
6.6583,1130413
6.66307,1128605
6.66783,1101210
6.67258,1091022
6.67735,1098093
6.68212,1060874
6.68687,1099994
6.69163,1115199
6.6964,1105136
6.70117,1080662
6.70592,1111326
6.71068,1100398
6.71545,1085275
6.7202,1089161
6.72497,1094212
6.72973,1099550
6.7345,1065557
6.73925,1132488
6.74402,1037103
6.74878,1079694
6.75355,1099688
6.7583,1094534
6.76307,1106853
6.76783,1076718
6.77258,1084148
6.77735,1129199
6.78212,1115633
6.78688,1059181
6.79163,1114526
6.7964,1092932
6.80117,1075634
6.80592,1110826
6.81068,1113481
6.81545,1132889
6.82022,1544820
6.82497,2774555
6.82973,6008519
6.8345,9914163
6.83925,11126819
6.84402,8794537
6.84878,5127993
6.85355,2937528
6.8583,1894212
6.86307,1563907
6.86783,1328840
6.87258,1230043
6.87735,1133964
6.88212,1137670
6.88688,1131616
6.89163,1087849
6.8964,1114935
6.90117,1055618
6.90593,1043044
6.91068,1049385
6.91545,1088919
6.92022,1023344
6.92497,1017567
6.92973,1033198
6.9345,1018712
6.93927,1016324
6.94402,972280
6.94878,1012649
6.95355,1014027
6.9583,947085
6.96307,1034885
6.96783,1022638
6.9726,976637
6.97735,991681
6.98212,1004405
6.98688,967722
6.99163,980627
6.9964,989879
7.00117,1019132
7.00593,976938
7.01068,962506
7.01545,975866
7.02022,982719
7.02497,938288
7.02973,1005312
7.0345,956201
7.03927,933761
7.04402,945999
7.04878,950977
7.05355,908223
7.0583,905131
7.06307,921996
7.06783,910036
7.0726,922462
7.07735,933385
7.08212,905001
7.08688,900290
7.09165,945482
7.0964,939725
7.10117,874943
7.10593,918854
7.11068,925528
7.11545,883717
7.12022,901891
7.12498,921047
7.12973,925292
7.1345,915661
7.13927,889552
7.14402,862444
7.14878,907650
7.15355,894957
7.15832,879877
7.16307,896400
7.16783,891348
7.1726,905512
7.17735,891719
7.18212,895698
7.18688,896493
7.19165,894143
7.1964,934437
7.20117,929532
7.20593,910402
7.21068,903663
7.21545,919649
7.22022,886223
7.22498,925243
7.22973,903133
7.2345,880618
7.23927,902075
7.24403,876362
7.24878,934873
7.25355,865133
7.25832,851801
7.26307,865780
7.26783,859470
7.2726,875637
7.27737,887138
7.28212,858079
7.28688,877644
7.29165,879476
7.2964,870456
7.30117,859857
7.30593,886333
7.3107,826469
7.31545,862194
7.32022,823489
7.32498,875159
7.32973,853555
7.3345,816033
7.33927,825879
7.34403,803618
7.34878,833986
7.35355,827806
7.35832,817125
7.36307,820475
7.36783,844158
7.3726,847098
7.37737,831129
7.38212,841787
7.38688,848521
7.39165,839748
7.3964,833649
7.40117,819824
7.40593,794431
7.4107,828540
7.41545,793326
7.42022,831559
7.42498,829951
7.42975,808538
7.4345,828959
7.43927,824666
7.44403,818922
7.44878,829058
7.45355,792476
7.45832,832514
7.46308,786040
7.46783,796354
7.4726,798193
7.47737,788122
7.48212,769357
7.48688,809416
7.49165,781226
7.49642,798782
7.50117,816672
7.50593,815852
7.5107,828485
7.51545,796131
7.52022,786561
7.52498,808456
7.52975,819767
7.5345,840339
7.53927,865785
7.54403,872686
7.54878,887231
7.55355,831170
7.55832,831099
7.56308,844580
7.56783,823747
7.5726,832767
7.57737,784688
7.58213,824189
7.58688,848662
7.59165,832904
7.59642,836916
7.60117,819062
7.60593,816527
7.6107,841128
7.61547,810494
7.62022,773842
7.62498,795726
7.62975,780075
7.6345,796325
7.63927,761807
7.64403,783517
7.6488,748477
7.65355,756721
7.65832,748858
7.66308,766556
7.66783,746286
7.6726,756403
7.67737,787003
7.68213,767043
7.68688,756209
7.69165,728630
7.69642,766652
7.70117,761921
7.70593,750038
7.7107,745934
7.71547,773234
7.72022,736290
7.72498,773589
7.72975,727767
7.7345,734495
7.73927,755255
7.74403,741274
7.7488,757702
7.75355,733519
7.75832,736898
7.76308,775810
7.76785,742314
7.7726,754233
7.77737,766472
7.78213,806545
7.78688,780626
7.79165,793329
7.79642,761348
7.80118,776264
7.80593,799000
7.8107,792468
7.81547,778752
7.82022,749120
7.82498,754145
7.82975,729462
7.83452,733792
7.83927,713733
7.84403,739346
7.8488,745777
7.85355,732239
7.85832,732463
7.86308,732225
7.86785,713720
7.8726,741639
7.87737,756778
7.88213,717427
7.88688,706377
7.89165,735801
7.89642,711200
7.90118,734909
7.90593,733449
7.9107,738114
7.91547,737195
7.92022,763845
7.92498,832346
7.92975,797429
7.93452,844730
7.93927,860845
7.94403,927344
7.9488,877269
7.95357,867281
7.95832,857527
7.96308,821240
7.96785,788974
7.9726,787395
7.97737,779715
7.98213,789189
7.9869,758908
7.99165,743026
7.99642,798568
8.00118,745111
8.00593,734154
8.0107,778111
8.01547,759917
8.02023,759088
8.02498,763683
8.02975,765042
8.03452,714939
8.03927,687820
8.04403,735821
8.0488,836846
8.05357,1059928
8.05832,1617857
8.06308,2641990
8.06785,4488200
8.0726,6600839
8.07737,8530850
8.08213,8649306
8.0869,7300477
8.09165,5260002
8.09642,3450361
8.10118,2210030
8.10595,1602472
8.1107,1229094
8.11547,1113739
8.12023,1039959
8.12498,995377
8.12975,931674
8.13452,866979
8.13928,835246
8.14403,810972
8.1488,787963
8.15357,783702
8.15832,756456
8.16308,751422
8.16785,693797
8.17262,720944
8.17737,694615
8.18213,662994
8.1869,702453
8.19165,708261
8.19642,678912
8.20118,700062
8.20595,647212
8.2107,697594
8.21547,713442
8.22023,701910
8.22498,713701
8.22975,699265
8.23452,725082
8.23928,702405
8.24403,677334
8.2488,663233
8.25357,671696
8.25832,670632
8.26308,650847
8.26785,694892
8.27262,656973
8.27737,686099
8.28213,663464
8.2869,667538
8.29167,662061
8.29642,716054
8.30118,665836
8.30595,660527
8.3107,705235
8.31547,633520
8.32023,664328
8.325,671678
8.32975,637136
8.33452,643741
8.33928,665102
8.34403,651066
8.3488,663917
8.35357,702266
8.35833,699779
8.36308,654992
8.36785,666646
8.37262,682704
8.37737,672412
8.38213,674027
8.3869,616892
8.39167,642433
8.39642,658689
8.40118,662138
8.40595,676280
8.4107,658752
8.41547,680173
8.42023,687028
8.425,675671
8.42975,632553
8.43452,663440
8.43928,673728
8.44405,674661
8.4488,654949
8.45357,632345
8.45833,634137
8.46308,630669
8.46785,669586
8.47262,662212
8.47738,679445
8.48213,643932
8.4869,664898
8.49167,662836
8.49642,662700
8.50118,623979
8.50595,606863
8.51072,629531
8.51547,628643
8.52023,625168
8.525,637864
8.52975,651505
8.53452,658862
8.53928,613508
8.54405,644288
8.5488,649154
8.55357,646789
8.55833,644595
8.56308,615704
8.56785,627100
8.57262,648059
8.57738,666624
8.58213,624925
8.5869,645108
8.59167,582736
8.59642,620370
8.60118,633992
8.60595,647023
8.61072,627142
8.61547,628053
8.62023,611922
8.625,620552
8.62977,627798
8.63452,624030
8.63928,641918
8.64405,638778
8.6488,620985
8.65357,610385
8.65833,622158
8.6631,611308
8.66785,583200
8.67262,605551
8.67738,636189
8.68213,625840
8.6869,602006
8.69167,619077
8.69643,617905
8.70118,615018
8.70595,600277
8.71072,607934
8.71547,637670
8.72023,609635
8.725,614557
8.72977,626461
8.73452,606277
8.73928,601846
8.74405,606022
8.7488,600256
8.75357,608340
8.75833,626494
8.7631,609307
8.76785,590835
8.77262,569108
8.77738,554174
8.78213,566639
8.7869,589255
8.79167,578509
8.79643,576000
8.80118,622794
8.80595,581422
8.81072,602963
8.81548,603430
8.82023,613419
8.825,589265
8.82977,557238
8.83452,593425
8.83928,615769
8.84405,558911
8.84882,613964
8.85357,601712
8.85833,589713
8.8631,594860
8.86785,606017
8.87262,613465
8.87738,604058
8.88215,621328
8.8869,616696
8.89167,627004
8.89643,587758
8.90118,575843
8.90595,604210
8.91072,605106
8.91548,546276
8.92023,594478
8.925,581924
8.92977,585603
8.93452,584513
8.93928,557676
8.94405,604812
8.94882,570071
8.95357,566896
8.95833,536068
8.9631,551946
8.96787,555966
8.97262,616903
8.97738,609105
8.98215,629158
8.9869,666881
8.99167,712843
8.99643,751313
9.0012,803203
9.00595,851974
9.01072,803280
9.01548,767269
9.02023,755600
9.025,701076
9.02977,659216
9.03453,628599
9.03928,593815
9.04405,617853
9.04882,592737
9.05357,560352
9.05833,540893
9.0631,560263
9.06787,594869
9.07262,562343
9.07738,599942
9.08215,580285
9.0869,569973
9.09167,586470
9.09643,575793
9.1012,588796
9.10595,583593
9.11072,585442
9.11548,593766
9.12023,581736
9.125,624870
9.12977,660531
9.13453,669506
9.13928,660029
9.14405,628641
9.14882,665590
9.15358,604184
9.15833,649248
9.1631,607031
9.16787,610242
9.17262,588866
9.17738,582745
9.18215,545928
9.18692,539818
9.19167,572038
9.19643,577405
9.2012,563441
9.20595,545728
9.21072,550892
9.21548,552959
9.22025,577055
9.225,540597
9.22977,547804
9.23453,552353
9.23928,547558
9.24405,543226
9.24882,559233
9.25358,537090
9.25833,553430
9.2631,539324
9.26787,570838
9.27262,549353
9.27738,544967
9.28215,573350
9.28692,582282
9.29167,589656
9.29643,565984
9.3012,574651
9.30597,582316
9.31072,588455
9.31548,616322
9.32025,595118
9.325,582988
9.32977,606343
9.33453,616071
9.3393,616678
9.34405,644212
9.34882,613383
9.35358,595752
9.35833,604113
9.3631,604237
9.36787,577509
9.37263,562537
9.37738,571580
9.38215,572328
9.38692,555370
9.39167,551945
9.39643,571227
9.4012,548355
9.40597,526503
9.41072,558947
9.41548,552480
9.42025,545113
9.425,531622
9.42977,519602
9.43453,558314
9.4393,547986
9.44405,529385
9.44882,535667
9.45358,525406
9.45833,566134
9.4631,541331
9.46787,504253
9.47263,533811
9.47738,518655
9.48215,526670
9.48692,540350
9.49168,566386
9.49643,549024
9.5012,526230
9.50597,545135
9.51072,538754
9.51548,526856
9.52025,505426
9.52502,525336
9.52977,510473
9.53453,535110
9.5393,543124
9.54405,525527
9.54882,549785
9.55358,581305
9.55835,565536
9.5631,567804
9.56787,579262
9.57263,613773
9.57738,606659
9.58215,582861
9.58692,589264
9.59168,600273
9.59643,542832
9.6012,541706
9.60597,581449
9.61072,589664
9.61548,610537
9.62025,625913
9.62502,638525
9.62977,635715
9.63453,621637
9.6393,636756
9.64405,571029
9.64882,570122
9.65358,561229
9.65835,554034
9.6631,537871
9.66787,546460
9.67263,536737
9.6774,522155
9.68215,537971
9.68692,533873
9.69168,522155
9.69643,555354
9.7012,534152
9.70597,514312
9.71073,510600
9.71548,551687
9.72025,511688
9.72502,518570
9.72977,516917
9.73453,539290
9.7393,514742
9.74407,551171
9.74882,526340
9.75358,522121
9.75835,517444
9.7631,549854
9.76787,531597
9.77263,518794
9.7774,492371
9.78215,514681
9.78692,541120
9.79168,528574
9.79643,509766
9.8012,520239
9.80597,486009
9.81073,506770
9.81548,533797
9.82025,495391
9.82502,507121
9.82978,530064
9.83453,527838
9.8393,533944
9.84407,515435
9.84882,524880
9.85358,524737
9.85835,525940
9.86312,512228
9.86787,543634
9.87263,501836
9.8774,514742
9.88215,513923
9.88692,530522
9.89168,473209
9.89645,519251
9.9012,524065
9.90597,520040
9.91073,513013
9.91548,537265
9.92025,583624
9.92502,696172
9.92978,940316
9.93453,1331110
9.9393,2121456
9.94407,3137966
9.94882,4475205
9.95358,5804955
9.95835,7064785
9.96312,7363834
9.96787,6373332
9.97263,4942895
9.9774,3645190
9.98215,2447742
9.98692,1727390
9.99168,1236569
9.99645,995171
10.0012,837789
10.006,775816
10.0107,676466
10.0155,654676
10.0203,627569
10.025,601577
10.0298,564093
10.0345,579469
10.0393,558815
10.0441,537430
10.0488,551440
10.0536,550257
10.0584,557214
10.0631,570666
10.0679,551820
10.0726,523621
10.0774,517547
10.0822,534687
10.0869,530830
10.0917,532120
10.0965,531019
10.1012,540539
10.106,565247
10.1107,589219
10.1155,592863
10.1203,623878
10.125,602788
10.1298,636191
10.1345,598761
10.1393,590895
10.1441,563775
10.1488,583722
10.1536,537660
10.1584,570562
10.1631,558452
10.1679,543680
10.1726,536710
10.1774,557937
10.1822,553629
10.1869,566823
10.1917,564192
10.1965,556277
10.2012,554932
10.206,607275
10.2107,637753
10.2155,596818
10.2203,579020
10.225,580254
10.2298,543846
10.2346,582447
10.2393,582790
10.2441,596579
10.2488,535847
10.2536,547708
10.2584,582190
10.2631,525743
10.2679,519152
10.2726,538947
10.2774,547128
10.2822,514327
10.2869,523790
10.2917,521410
10.2965,541998
10.3012,505859
10.306,544573
10.3107,526807
10.3155,506112
10.3203,526267
10.325,518380
10.3298,522779
10.3346,515954
10.3393,493525
10.3441,517469
10.3488,492051
10.3536,519347
10.3584,517168
10.3631,544281
10.3679,511434
10.3726,538345
10.3774,513990
10.3822,523103
10.3869,496762
10.3917,515242
10.3965,513876
10.4012,485170
10.406,507673
10.4107,493651
10.4155,507075
10.4203,517853
10.425,524282
10.4298,500551
10.4346,509262
10.4393,530945
10.4441,497826
10.4488,497512
10.4536,503056
10.4584,506876
10.4631,516013
10.4679,518648
10.4726,502756
10.4774,493801
10.4822,530248
10.4869,522889
10.4917,550651
10.4965,481660
10.5012,544710
10.506,539112
10.5107,550802
10.5155,559719
10.5203,568141
10.525,538137
10.5298,517265
10.5346,582830
10.5393,546009
10.5441,578403
10.5488,546128
10.5536,575832
10.5584,582876
10.5631,574014
10.5679,540663
10.5727,531098
10.5774,559628
10.5822,516554
10.5869,546726
10.5917,522258
10.5965,540274
10.6012,534102
10.606,566587
10.6107,519826
10.6155,572796
10.6203,545328
10.625,547581
10.6298,568942
10.6346,513442
10.6393,519716
10.6441,533400
10.6488,521369
10.6536,513842
10.6584,530799
10.6631,575520
10.6679,540033
10.6727,538216
10.6774,542737
10.6822,538272
10.6869,553014
10.6917,568945
10.6965,587379
10.7012,599170
10.706,582942
10.7107,601132
10.7155,583693
10.7203,616212
10.725,572535
10.7298,586726
10.7346,592412
10.7393,564835
10.7441,602987
10.7488,562867
10.7536,584204
10.7584,553675
10.7631,556357
10.7679,540817
10.7727,562412
10.7774,576038
10.7822,562595
10.7869,559429
10.7917,543233
10.7965,551092
10.8012,533984
10.806,577067
10.8107,559175
10.8155,563179
10.8203,525885
10.825,541409
10.8298,542053
10.8346,547149
10.8393,542986
10.8441,556078
10.8488,557803
10.8536,523949
10.8584,539480
10.8631,562313
10.8679,574240
10.8727,552666
10.8774,562509
10.8822,546687
10.8869,562109
10.8917,577520
10.8965,584557
10.9012,591937
10.906,595979
10.9108,681858
10.9155,984268
10.9203,1623931
10.925,2848753
10.9298,4668293
10.9346,6784482
10.9393,8840344
10.9441,9117133
10.9488,7363277
10.9536,5105196
10.9584,3423824
10.9631,2231880
10.9679,1704533
10.9727,1405556
10.9774,1243596
10.9822,1209851
10.9869,1162198
10.9917,1181145
10.9965,1227040
11.0012,1418565
11.006,1663633
11.0108,2089845
11.0155,2694022
11.0203,3558658
11.025,4205212
11.0298,4278837
11.0346,3750439
11.0393,2886898
11.0441,2138738
11.0488,1671591
11.0536,1401683
11.0584,1302865
11.0631,1189623
11.0679,1175989
11.0727,1144758
11.0774,1127664
11.0822,1071962
11.0869,1087825
11.0917,1108834
11.0965,1110787
11.1012,1115255
11.106,1295535
11.1108,1625573
11.1155,1978070
11.1203,2267073
11.125,2517937
11.1298,2365829
11.1346,2099755
11.1393,1612031
11.1441,1301190
11.1488,1076953
11.1536,954084
11.1584,939554
11.1631,937477
11.1679,1017633
11.1727,1011649
11.1774,1017975
11.1822,998720
11.1869,963882
11.1917,989426
11.1965,901412
11.2012,885760
11.206,831529
11.2108,843413
11.2155,850557
11.2203,856336
11.225,771663
11.2298,742467
11.2346,734613
11.2393,720420
11.2441,760313
11.2489,849123
11.2536,1066402
11.2584,1501397
11.2631,2085075
11.2679,2770660
11.2727,3195045
11.2774,2966712
11.2822,2388551
11.2869,1716817
11.2917,1297874
11.2965,1080640
11.3012,975351
11.306,925805
11.3108,829630
11.3155,840318
11.3203,832169
11.325,827679
11.3298,811230
11.3346,809781
11.3393,792849
11.3441,765024
11.3489,773663
11.3536,736920
11.3584,732616
11.3631,763166
11.3679,765764
11.3727,770834
11.3774,774826
11.3822,737470
11.3869,773835
11.3917,772921
11.3965,783549
11.4012,827079
11.406,764485
11.4108,771875
11.4155,780677
11.4203,806540
11.425,765161
11.4298,780980
11.4346,758470
11.4393,749316
11.4441,745870
11.4489,761124
11.4536,745708
11.4584,740491
11.4631,732577
11.4679,813638
11.4727,1088412
11.4774,1771830
11.4822,3395833
11.4869,6271512
11.4917,9917525
11.4965,11792873
11.5012,10805258
11.506,8114191
11.5108,5113306
11.5155,3004404
11.5203,1770779
11.525,1216925
11.5298,1010657
11.5346,876892
11.5393,859229
11.5441,786232
11.5489,817833
11.5536,756145
11.5584,772253
11.5631,736249
11.5679,731047
11.5727,665380
11.5774,687771
11.5822,679217
11.587,667513
11.5917,681146
11.5965,670492
11.6012,720064
11.606,711875
11.6108,697199
11.6155,682776
11.6203,695822
11.625,722025
11.6298,727696
11.6346,712901
11.6393,737605
11.6441,692569
11.6489,707090
11.6536,675565
11.6584,680244
11.6631,691879
11.6679,701258
11.6727,659140
11.6774,709704
11.6822,684177
11.687,712389
11.6917,850381
11.6965,982186
11.7012,1176183
11.706,1417799
11.7108,1497265
11.7155,1480391
11.7203,1442421
11.725,1406136
11.7298,1479177
11.7346,1649109
11.7393,1725195
11.7441,1848633
11.7489,1838836
11.7536,1754962
11.7584,1645283
11.7631,1436230
11.7679,1199257
11.7727,1022064
11.7774,925494
11.7822,916932
11.787,998077
11.7917,1328454
11.7965,1726328
11.8012,2247146
11.806,2713378
11.8108,2798438
11.8155,2422830
11.8203,1887825
11.825,1485578
11.8298,1246564
11.8346,1072214
11.8393,968830
11.8441,946871
11.8489,903365
11.8536,918607
11.8584,889116
11.8631,880995
11.8679,908740
11.8727,916169
11.8774,959634
11.8822,929236
11.887,943980
11.8917,998077
11.8965,962290
11.9012,947031
11.906,931862
11.9108,914370
11.9155,886236
11.9203,901549
11.9251,868228
11.9298,864291
11.9346,911674
11.9393,891489
11.9441,972554
11.9489,1039760
11.9536,1046055
11.9584,1105885
11.9631,1072033
11.9679,1072584
11.9727,1080191
11.9774,1192726
11.9822,1047012
11.987,1062007
11.9917,1083010
11.9965,1112773
12.0012,1176539
12.006,1300516
12.0108,1301202
12.0155,1426628
12.0203,1345986
12.0251,1244995
12.0298,1266057
12.0346,1152884
12.0393,1151196
12.0441,1099382
12.0489,1109555
12.0536,1087454
12.0584,1125221
12.0631,1050795
12.0679,1031231
12.0727,1079330
12.0774,1043257
12.0822,1014998
12.087,1018213
12.0917,1038013
12.0965,1001925
12.1012,1042761
12.106,956348
12.1108,987652
12.1155,1030335
12.1203,1025643
12.1251,1030779
12.1298,1032243
12.1346,1022138
12.1393,1052608
12.1441,1051926
12.1489,1039189
12.1536,1011929
12.1584,1023925
12.1631,1005582
12.1679,981927
12.1727,958352
12.1774,937458
12.1822,924451
12.187,939817
12.1917,921154
12.1965,978599
12.2012,1008346
12.206,1058762
12.2108,1037058
12.2155,1006830
12.2203,1015294
12.2251,1000828
12.2298,975585
12.2346,1041763
12.2393,983769
12.2441,982159
12.2489,920440
12.2536,906756
12.2584,935585
12.2632,968655
12.2679,954795
12.2727,897877
12.2774,945403
12.2822,951276
12.287,950604
12.2917,938147
12.2965,948175
12.3012,929214
12.306,965075
12.3108,1003223
12.3155,1027253
12.3203,1059543
12.3251,1079005
12.3298,1042097
12.3346,1035528
12.3393,961670
12.3441,959799
12.3489,976658
12.3536,940909
12.3584,936452
12.3632,931934
12.3679,989500
12.3727,972066
12.3774,1011294
12.3822,968512
12.387,995491
12.3917,953620
12.3965,937223
12.4012,928415
12.406,939178
12.4108,905481
12.4155,945948
12.4203,963310
12.4251,978903
12.4298,966296
12.4346,972049
12.4393,940353
12.4441,962953
12.4489,997069
12.4536,1008571
12.4584,986220
12.4632,984737
12.4679,952456
12.4727,942256
12.4774,963709
12.4822,968795
12.487,1012411
12.4917,988603
12.4965,946502
12.5012,981698
12.506,928707
12.5108,967222
12.5155,967806
12.5203,1014499
12.5251,1064151
12.5298,1070967
12.5346,1094220
12.5393,1154269
12.5441,1158356
12.5489,1200283
12.5536,1218437
12.5584,1227054
12.5632,1174811
12.5679,1123541
12.5727,1115408
12.5774,1170165
12.5822,1161982
12.587,1221530
12.5917,1255171
12.5965,1231480
12.6013,1137268
12.606,1108367
12.6108,1115357
12.6155,1029254
12.6203,1038780
12.6251,1013962
12.6298,1026179
12.6346,1030880
12.6393,991097
12.6441,975392
12.6489,952204
12.6536,965988
12.6584,1076515
12.6632,1160044
12.6679,1709156
12.6727,2836081
12.6774,5142917
12.6822,8452246
12.687,11592497
12.6917,11925215
12.6965,10044133
12.7013,7056124
12.706,4443299
12.7108,2670378
12.7155,1680921
12.7203,1314872
12.7251,1161258
12.7298,1054906
12.7346,1069381
12.7393,998946
12.7441,983589
12.7489,981223
12.7536,1000824
12.7584,1012728
12.7632,1011321
12.7679,1052781
12.7727,1030923
12.7774,1072029
12.7822,1006196
12.787,1051765
12.7917,1040945
12.7965,1039939
12.8013,1046372
12.806,1025639
12.8108,1067759
12.8155,1103363
12.8203,974953
12.8251,1031720
12.8298,1017093
12.8346,1020436
12.8393,958135
12.8441,972204
12.8489,981154
12.8536,944295
12.8584,959999
12.8632,958350
12.8679,981489
12.8727,989213
12.8774,1001552
12.8822,980239
12.887,1004948
12.8917,990890
12.8965,1018642
12.9013,1024751
12.906,1016256
12.9108,984085
12.9155,1018530
12.9203,997479
12.9251,1038631
12.9298,992086
12.9346,1018885
12.9394,936445
12.9441,912669
12.9489,957758
12.9536,946405
12.9584,956499
12.9632,969416
12.9679,989389
12.9727,961290
12.9774,975170
12.9822,961350
12.987,990957
12.9917,952616
12.9965,980155
13.0013,1002898
13.006,1013008
13.0108,1062446
13.0155,985452
13.0203,1044281
13.0251,964061
13.0298,1032696
13.0346,937433
13.0394,962298
13.0441,926750
13.0489,968041
13.0536,972986
13.0584,921641
13.0632,991094
13.0679,965319
13.0727,972797
13.0774,994709
13.0822,973274
13.087,978877
13.0917,973193
13.0965,1019654
13.1013,979910
13.106,970823
13.1108,936437
13.1155,1015930
13.1203,1066089
13.1251,1129975
13.1298,1215818
13.1346,1341002
13.1394,1368501
13.1441,1392511
13.1489,1254515
13.1536,1173555
13.1584,1099800
13.1632,1044851
13.1679,1010151
13.1727,1006780
13.1774,1050291
13.1822,1010116
13.187,978935
13.1917,1003440
13.1965,994596
13.2013,1027780
13.206,1034112
13.2108,1070714
13.2155,994223
13.2203,1049790
13.2251,1048555
13.2298,1040228
13.2346,1023813
13.2394,1011049
13.2441,1021174
13.2489,1009755
13.2536,1047663
13.2584,1027076
13.2632,1007346
13.2679,1015724
13.2727,1020088
13.2775,1055924
13.2822,1096718
13.287,1256913
13.2917,1567412
13.2965,1896836
13.3013,2159756
13.306,2319182
13.3108,2199969
13.3155,1926753
13.3203,1574959
13.3251,1502349
13.3298,1485212
13.3346,1640397
13.3394,1887674
13.3441,2189312
13.3489,2235616
13.3536,2170617
13.3584,1795875
13.3632,1507600
13.3679,1299367
13.3727,1151246
13.3775,1069686
13.3822,1069091
13.387,1066438
13.3917,1067951
13.3965,1076727
13.4013,1079790
13.406,1009552
13.4108,1042899
13.4155,1036169
13.4203,1018792
13.4251,1005582
13.4298,1049123
13.4346,1033571
13.4394,1054211
13.4441,1072617
13.4489,1051882
13.4536,1051053
13.4584,1046855
13.4632,1035074
13.4679,1001001
13.4727,1006052
13.4775,1039857
13.4822,997828
13.487,1041795
13.4917,1081327
13.4965,1055262
13.5013,1069520
13.506,1033167
13.5108,1072957
13.5155,1076977
13.5203,1086993
13.5251,1152948
13.5298,1411339
13.5346,1851758
13.5394,2519597
13.5441,3117634
13.5489,3410079
13.5536,3326785
13.5584,2909309
13.5632,2306675
13.5679,1702502
13.5727,1428949
13.5775,1229656
13.5822,1257697
13.587,1224811
13.5917,1340791
13.5965,1663659
13.6013,1811012
13.606,2150256
13.6108,2189401
13.6156,1991374
13.6203,1733809
13.6251,1548966
13.6298,1420242
13.6346,1301695
13.6394,1258152
13.6441,1235085
13.6489,1153055
13.6536,1188703
13.6584,1117408
13.6632,1164580
13.6679,1151729
13.6727,1076509
13.6775,1091394
13.6822,1081322
13.687,1065399
13.6917,1120482
13.6965,1114847
13.7013,1085706
13.706,1116048
13.7108,1141104
13.7156,1117732
13.7203,1120757
13.7251,1122489
13.7298,1133732
13.7346,1305664
13.7394,1756077
13.7441,2947849
13.7489,5201908
13.7536,8540990
13.7584,11391458
13.7632,11826902
13.7679,10533773
13.7727,7681148
13.7775,4918039
13.7822,3007985
13.787,2014675
13.7917,1521491
13.7965,1314654
13.8013,1242476
13.806,1178780
13.8108,1143137
13.8156,1145744
13.8203,1149387
13.8251,1167496
13.8298,1141937
13.8346,1216889
13.8394,1181131
13.8441,1130144
13.8489,1167938
13.8536,1175163
13.8584,1173861
13.8632,1213007
13.8679,1189869
13.8727,1158334
13.8775,1175477
13.8822,1165022
13.887,1151079
13.8917,1163521
13.8965,1151644
13.9013,1153125
13.906,1179653
13.9108,1159858
13.9156,1146771
13.9203,1159900
13.9251,1164501
13.9298,1131524
13.9346,1198032
13.9394,1207232
13.9441,1192588
13.9489,1196550
13.9536,1192414
13.9584,1174295
13.9632,1173130
13.9679,1208063
13.9727,1170708
13.9775,1210732
13.9822,1204677
13.987,1194086
13.9917,1231566
13.9965,1496159
14.0013,1906975
14.006,2750631
14.0108,3784276
14.0156,4727643
14.0203,5083697
14.0251,4529515
14.0298,3635797
14.0346,2710052
14.0394,2067932
14.0441,1730263
14.0489,1624940
14.0537,1591670
14.0584,1653696
14.0632,1646509
14.0679,1656353
14.0727,1668514
14.0775,1659940
14.0822,1643853
14.087,1681533
14.0917,1659603
14.0965,1609290
14.1013,1538557
14.106,1510171
14.1108,1420573
14.1156,1396118
14.1203,1420078
14.1251,1401165
14.1298,1464611
14.1346,1491238
14.1394,1663434
14.1441,1827713
14.1489,2080935
14.1537,2208551
14.1584,2160052
14.1632,2026287
14.1679,1798231
14.1727,1623474
14.1775,1552366
14.1822,1499268
14.187,1466705
14.1917,1498620
14.1965,1416043
14.2013,1459114
14.206,1446955
14.2108,1541359
14.2156,1601915
14.2203,1784091
14.2251,2170229
14.2298,2840595
14.2346,3611788
14.2394,3946633
14.2441,3789454
14.2489,3185169
14.2537,2482688
14.2584,2069260
14.2632,1874320
14.2679,1770173
14.2727,1734763
14.2775,1743375
14.2822,1710063
14.287,1706662
14.2917,1727499
14.2965,1717565
14.3013,1723531
14.306,1781437
14.3108,2045143
14.3156,1817591
14.3203,1736402
14.3251,1808133
14.3298,1813392
14.3346,1807360
14.3394,1805685
14.3441,1795504
14.3489,1792989
14.3537,1770473
14.3584,1806421
14.3632,1833566
14.3679,1877256
14.3727,1801296
14.3775,1868396
14.3822,1855919
14.387,1925582
14.3918,1892228
14.3965,1894624
14.4013,1869846
14.406,1927163
14.4108,1903861
14.4156,1962056
14.4203,1945790
14.4251,2046739
14.4298,2030684
14.4346,1994090
14.4394,2033766
14.4441,2073440
14.4489,2126317
14.4537,2120838
14.4584,2151968
14.4632,2173029
14.4679,2148976
14.4727,2115262
14.4775,2098710
14.4822,2134953
14.487,2167047
14.4918,2143929
14.4965,2181775
14.5013,2211095
14.506,2169676
14.5108,2204798
14.5156,2275444
14.5203,2343874
14.5251,2326029
14.5298,2410217
14.5346,2429518
14.5394,2387804
14.5441,2363981
14.5489,2357675
14.5537,2300104
14.5584,2303427
14.5632,2328413
14.5679,2335449
14.5727,2423128
14.5775,2521888
14.5822,2827425
14.587,3494533
14.5918,4257596
14.5965,4903778
14.6013,5027096
14.606,4729860
14.6108,4069385
14.6156,3450521
14.6203,2931628
14.6251,2686064
14.6298,2600238
14.6346,2613833
14.6394,2521025
14.6441,2461038
14.6489,2524893
14.6537,2518025
14.6584,2481254
14.6632,2526594
14.6679,2520582
14.6727,2426185
14.6775,2497496
14.6822,2448148
14.687,2465726
14.6918,2482437
14.6965,2515229
14.7013,2470044
14.706,2517981
14.7108,2518124
14.7156,2422441
14.7203,2450255
14.7251,2526155
14.7299,2705681
14.7346,3125016
14.7394,3935510
14.7441,5826247
14.7489,8709702
14.7537,12158041
14.7584,14257422
14.7632,13641897
14.7679,10964859
14.7727,7840035
14.7775,5513934
14.7822,3983565
14.787,3135410
14.7918,2865503
14.7965,2640760
14.8013,2663398
14.806,2576410
14.8108,2574047
14.8156,2574329
14.8203,2595159
14.8251,2463417
14.8299,2498366
14.8346,2463726
14.8394,2424018
14.8441,2463697
14.8489,2426841
14.8537,2465150
14.8584,2386378
14.8632,2445504
14.8679,2473747
14.8727,2490185
14.8775,2486946
14.8822,2529015
14.887,2421271
14.8918,2402588
14.8965,2500548
14.9013,2405067
14.906,2488336
14.9108,2478439
14.9156,2459891
14.9203,2428854
14.9251,2415925
14.9299,2488527
14.9346,2488337
14.9394,2467607
14.9441,2550118
14.9489,2427522
14.9537,2448769
14.9584,2431412
14.9632,2356962
14.9679,2394113
14.9727,2356812
14.9775,2394003
14.9822,2418565
14.987,2422491
14.9918,2425962
14.9965,2401890
15.0013,2425257
15.006,2431667
15.0108,2355841
15.0156,2342016
15.0203,2395203
15.0251,2368033
15.0299,2375775
15.0346,2357497
15.0394,2318070
15.0441,2349997
15.0489,2379730
15.0537,2373239
15.0584,2298221
15.0632,2299138
15.068,2327427
15.0727,2336417
15.0775,2360695
15.0822,2384579
15.087,2344684
15.0918,2283694
15.0965,2321673
15.1013,2313079
15.106,2325039
15.1108,2271082
15.1156,2270893
15.1203,2282303
15.1251,2317443
15.1299,2305896
15.1346,2267516
15.1394,2297580
15.1441,2247683
15.1489,2297273
15.1537,2201333
15.1584,2271336
15.1632,2269124
15.168,2256013
15.1727,2204920
15.1775,2223023
15.1822,2323465
15.187,2376197
15.1918,2335962
15.1965,2334992
15.2013,2358858
15.206,2426024
15.2108,2277363
15.2156,2317146
15.2203,2290846
15.2251,2219513
15.2299,2177603
15.2346,2175116
15.2394,2193547
15.2441,2198813
15.2489,2255724
15.2537,2200005
15.2584,2239320
15.2632,2327354
15.268,2280046
15.2727,2279918
15.2775,2263301
15.2822,2248703
15.287,2228368
15.2918,2220842
15.2965,2201947
15.3013,2242003
15.306,2147725
15.3108,2133432
15.3156,2205393
15.3203,2180661
15.3251,2159483
15.3299,2080422
15.3346,2117925
15.3394,2134082
15.3441,2119670
15.3489,2175984
15.3537,2076348
15.3584,2128976
15.3632,2148026
15.368,2057987
15.3727,2106891
15.3775,2050785
15.3822,2013860
15.387,2117824
15.3918,2116501
15.3965,2072025
15.4013,2106271
15.4061,2148404
15.4108,2064414
15.4156,2090200
15.4203,2169054
15.4251,2100258
15.4299,2091176
15.4346,2087468
15.4394,2085737
15.4441,2083317
15.4489,2035187
15.4537,2037992
15.4584,2002285
15.4632,2038005
15.468,2075346
15.4727,2028588
15.4775,2030102
15.4822,2036983
15.487,2022194
15.4918,1985110
15.4965,1981271
15.5013,2039042
15.5061,2021324
15.5108,2146917
15.5156,2099636
15.5203,2094365
15.5251,2122919
15.5299,2196756
15.5346,2247533
15.5394,2333919
15.5441,2340315
15.5489,2316583
15.5537,2304183
15.5584,2245429
15.5632,2089516
15.568,2042199
15.5727,2000910
15.5775,1994518
15.5822,2008315
15.587,1971852
15.5918,1975837
15.5965,1995349
15.6013,1943030
15.6061,1999654
15.6108,2074582
15.6156,1944614
15.6203,2019806
15.6251,2015126
15.6299,1959569
15.6346,1958778
15.6394,1969843
15.6441,1917686
15.6489,1939803
15.6537,2004421
15.6584,1969010
15.6632,2105052
15.668,2441345
15.6727,3351800
15.6775,5206509
15.6822,8005815
15.687,11079837
15.6918,12899425
15.6965,11812154
15.7013,8897219
15.7061,5880946
15.7108,3990131
15.7156,3022773
15.7203,2474751
15.7251,2326012
15.7299,2242778
15.7346,2379035
15.7394,2251758
15.7442,2240219
15.7489,2177773
15.7537,2161768
15.7584,2088798
15.7632,2047418
15.768,2048619
15.7727,2026210
15.7775,2001067
15.7822,2008858
15.787,2025371
15.7918,1963667
15.7965,1972394
15.8013,2002114
15.8061,1964181
15.8108,2004841
15.8156,1973119
15.8203,1950047
15.8251,1937133
15.8299,1955618
15.8346,1982731
15.8394,2013268
15.8442,1991922
15.8489,1931733
15.8537,1993220
15.8584,1907492
15.8632,2015616
15.868,1959093
15.8727,1939956
15.8775,1999629
15.8822,1957535
15.887,1991524
15.8918,1973803
15.8965,2088381
15.9013,2068732
15.9061,2070948
15.9108,2037245
15.9156,2035872
15.9203,1962407
15.9251,2007470
15.9299,1952855
15.9346,1967851
15.9394,1971113
15.9442,1991481
15.9489,2014733
15.9537,1968041
15.9584,1986204
15.9632,1970997
15.968,1989418
15.9727,1987894
15.9775,1964621
15.9822,1960632
15.987,1951274
15.9918,2002409
15.9965,1951700
16.0013,1916327
16.006,2016577
16.0108,1958487
16.0156,1991401
16.0203,2091508
16.0251,2143854
16.0299,2251054
16.0346,2224112
16.0394,2148743
16.0441,2092619
16.0489,2119356
16.0537,1983892
16.0584,2025792
16.0632,1998598
16.068,2005118
16.0727,1992181
16.0775,1950580
16.0822,1990234
16.087,2000781
16.0918,1976059
16.0965,2007197
16.1013,1973893
16.1061,2027953
16.1108,1947969
16.1156,1970968
16.1203,2021018
16.1251,2013746
16.1299,2003662
16.1346,2000624
16.1394,2006775
16.1442,2044430
16.1489,1983855
16.1537,2042450
16.1584,1990734
16.1632,1982256
16.168,1963478
16.1727,2058297
16.1775,2039038
16.1823,2015234
16.187,2084008
16.1918,1991199
16.1965,2003464
16.2013,2093335
16.2061,1981697
16.2108,2032081
16.2156,2015828
16.2203,2100181
16.2251,2098879
16.2299,2086086
16.2346,2038074
16.2394,2118160
16.2442,2021620
16.2489,2057533
16.2537,2121778
16.2584,2065555
16.2632,2097362
16.268,2045256
16.2727,2118734
16.2775,2096499
16.2823,2113855
16.287,2125865
16.2918,2090822
16.2965,2065039
16.3013,2133270
16.306,2139496
16.3108,2129718
16.3156,2117668
16.3203,2120417
16.3251,2125893
16.3299,2128295
16.3346,2151924
16.3394,2139492
16.3441,2167553
16.3489,2142259
16.3537,2321376
16.3584,2721524
16.3632,4119196
16.368,7327074
16.3727,10248557
16.3775,10758692
16.3822,8844246
16.387,6145593
16.3918,4140524
16.3965,3150976
16.4013,2958696
16.4061,3365965
16.4108,4337200
16.4156,4907369
16.4203,4463039
16.4251,3493373
16.4299,2846717
16.4346,2547044
16.4394,2438330
16.4442,2366251
16.4489,2337810
16.4537,2400844
16.4584,2391223
16.4632,2320996
16.468,2405709
16.4727,2369381
16.4775,2356734
16.4823,2371309
16.487,2395588
16.4918,2335711
16.4965,2358814
16.5013,2388086
16.506,2410247
16.5108,2366957
16.5156,2422502
16.5204,2411871
16.5251,2497036
16.5299,2486010
16.5346,2484089
16.5394,2473669
16.5441,2501334
16.5489,2515704
16.5537,2533738
16.5584,2519894
16.5632,2501128
16.568,2459402
16.5727,2506325
16.5775,2546539
16.5822,2519759
16.587,2495709
16.5918,2459472
16.5965,2489688
16.6013,2501444
16.6061,2514613
16.6108,2602104
16.6156,2547409
16.6203,2477259
16.6251,2461654
16.6299,2600676
16.6346,2541792
16.6394,2509623
16.6442,2562722
16.6489,2512163
16.6537,2509044
16.6584,2581431
16.6632,2578669
16.668,2567739
16.6727,2549741
16.6775,2569147
16.6823,2585550
16.687,2647412
16.6918,2583130
16.6965,2587906
16.7013,2521760
16.7061,2608636
16.7108,2599016
16.7156,2540969
16.7204,2564859
16.7251,2568214
16.7299,2597763
16.7346,2601697
16.7394,2617768
16.7442,2727386
16.7489,2716665
16.7537,2687348
16.7585,2706839
16.7632,2574884
16.768,2475399
16.7727,2618366
16.7775,2683137
16.7823,2608638
16.787,2648488
16.7918,2682389
16.7965,2667019
16.8013,2546568
16.8061,2650919
16.8108,2650727
16.8156,2723073
16.8204,2800224
16.8251,2774993
16.8299,2829231
16.8346,2905568
16.8394,2842188
16.8441,2880197
16.8489,3005959
16.8537,3071932
16.8585,3217419
16.8632,3459354
16.868,3320722
16.8727,3292210
16.8775,3160441
16.8822,3142197
16.887,3147781
16.8918,3094545
16.8965,3206675
16.9013,3563621
16.9061,4570460
16.9108,6051479
16.9156,7495622
16.9203,7627720
16.9251,6657876
16.9299,5199635
16.9346,4152116
16.9394,3732920
16.9442,3692090
16.9489,3454282
16.9537,3592839
16.9584,3524178
16.9632,3530836
16.968,3554648
16.9727,3693578
16.9775,4012941
16.9823,4418254
16.987,4711720
16.9918,4437809
16.9965,4230620
17.0013,3853774
17.0061,4130325
17.0108,4925877
17.0156,5969481
17.0204,6433835
17.0251,5883988
17.0299,4879718
17.0346,4142138
17.0394,3845355
17.0442,3832649
17.0489,3796021
17.0537,3714414
17.0585,3618081
17.0632,3664088
17.068,3720625
17.0727,3809490
17.0775,3719938
17.0822,3755606
17.087,3715228
17.0918,3659463
17.0966,3692876
17.1013,3726694
17.1061,3747604
17.1108,3667766
17.1156,3826223
17.1203,3776859
17.1251,4000529
17.1299,5168700
17.1346,8605491
17.1394,15887585
17.1442,25034524
17.1489,26164360
17.1537,18898764
17.1584,11445620
17.1632,7056651
17.168,5278217
17.1727,4667861
17.1775,4539307
17.1823,4414032
17.187,4344996
17.1918,4362183
17.1965,4430860
17.2013,4268892
17.2061,4146419
17.2108,4064871
17.2156,3996619
17.2204,3991937
17.2251,3892391
17.2299,3978248
17.2346,3884708
17.2394,3942283
17.2442,3933081
17.2489,3851519
17.2537,3893703
17.2585,3831144
17.2632,3885257
17.268,3885237
17.2727,3961629
17.2775,3991547
17.2823,3837320
17.287,3880464
17.2918,3923561
17.2966,4125223
17.3013,5455166
17.3061,9948989
17.3108,19911136
17.3156,29576496
17.3204,31178644
17.3251,23543802
17.3299,14372106
17.3346,8757229
17.3394,6327494
17.3442,5247754
17.3489,4840091
17.3537,4546350
17.3585,4489516
17.3632,4426155
17.368,4287423
17.3727,4197768
17.3775,4122702
17.3823,4079298
17.387,3977411
17.3918,4044374
17.3966,3989484
17.4013,4017465
17.4061,4016511
17.4108,3993548
17.4156,4057727
17.4203,3967508
17.4251,4067432
17.4299,3960753
17.4347,4165764
17.4394,4381196
17.4442,4712394
17.4489,5031464
17.4537,5294541
17.4584,5124297
17.4632,4863764
17.468,4562679
17.4727,4546992
17.4775,4214300
17.4823,4160964
17.487,4178244
17.4918,4121030
17.4965,4110274
17.5013,4075656
17.5061,3989978
17.5108,4058632
17.5156,4037306
17.5204,4003612
17.5251,4042041
17.5299,4089876
17.5346,4099552
17.5394,4097069
17.5442,3937979
17.5489,4001704
17.5537,3978084
17.5585,3991450
17.5632,3992127
17.568,3997564
17.5727,3985949
17.5775,3920440
17.5823,3897191
17.587,3969213
17.5918,4066067
17.5966,4309339
17.6013,4807522
17.6061,5289676
17.6108,5578379
17.6156,5141327
17.6204,4761333
17.6251,4410331
17.6299,4187134
17.6347,3984088
17.6394,4130922
17.6442,5307345
17.6489,10181924
17.6537,25080538
17.6585,54452032
17.6632,87257944
17.668,100688856
17.6727,87811336
17.6775,56043976
17.6823,29756312
17.687,16339640
17.6918,10911428
17.6966,8393728
17.7013,7292332
17.7061,6569656
17.7108,6118691
17.7156,5702133
17.7204,5391484
17.7251,5055902
17.7299,4940995
17.7347,4864987
17.7394,4685160
17.7442,4657236
17.7489,4641033
17.7537,4547510
17.7585,4652695
17.7632,4679909
17.768,4677060
17.7728,5052836
17.7775,5916742
17.7823,7412978
17.787,9221522
17.7918,10070215
17.7966,9315917
17.8013,7678922
17.8061,6392145
17.8108,5326409
17.8156,4968875
17.8204,4816977
17.8251,4660672
17.8299,4611410
17.8347,4606357
17.8394,4530594
17.8442,4461434
17.8489,4407537
17.8537,4406084
17.8585,4423054
17.8632,4440845
17.868,4436412
17.8728,4353800
17.8775,4411310
17.8823,4285257
17.887,4416039
17.8918,4393786
17.8966,4358266
17.9013,4485662
17.9061,4857397
17.9108,5676307
17.9156,6625399
17.9204,7571077
17.9251,7926072
17.9299,7156491
17.9347,6104569
17.9394,5391510
17.9442,5050494
17.9489,5002191
17.9537,5189965
17.9585,5112941
17.9632,4958889
17.968,4777674
17.9728,4591804
17.9775,4494647
17.9823,4501004
17.987,4482232
17.9918,4392518
17.9965,4409365
18.0013,4402970
18.0061,4413523
18.0108,4615336
18.0156,4677114
18.0204,4801088
18.0251,4686932
18.0299,4669144
18.0346,4468409
18.0394,4435760
18.0442,4364153
18.0489,4359196
18.0537,4394421
18.0585,4349253
18.0632,4324739
18.068,4372708
18.0727,4928252
18.0775,6379569
18.0823,12003724
18.087,27218962
18.0918,58665576
18.0966,99136664
18.1013,124113984
18.1061,123369584
18.1108,99732520
18.1156,63212376
18.1204,34883288
18.1251,20210524
18.1299,13802180
18.1347,10819589
18.1394,9476729
18.1442,8935209
18.1489,9464194
18.1537,11050976
18.1585,12838451
18.1632,14141892
18.168,13796823
18.1728,11837070
18.1775,9333327
18.1823,7580761
18.187,6654365
18.1918,6060525
18.1966,5637597
18.2013,5561449
18.2061,5299631
18.2109,5201058
18.2156,5020700
18.2204,5070896
18.2251,4938992
18.2299,4884595
18.2347,4982886
18.2394,4677763
18.2442,4632363
18.2489,4645054
18.2537,4621165
18.2585,4680386
18.2632,4681440
18.268,5252612
18.2728,6970041
18.2775,12255475
18.2823,25074784
18.287,48985900
18.2918,75390240
18.2966,93347664
18.3013,94690152
18.3061,76006744
18.3109,50080168
18.3156,29359982
18.3204,18026894
18.3251,12621570
18.3299,9922468
18.3347,8706927
18.3394,7716384
18.3442,7254883
18.3489,6824706
18.3537,6435518
18.3585,6139765
18.3632,5845944
18.368,5615174
18.3728,5531855
18.3775,5338937
18.3823,5199647
18.387,5073528
18.3918,4988594
18.3966,5022028
18.4013,4879805
18.4061,4846387
18.4109,4738584
18.4156,4768022
18.4204,4679884
18.4251,4652423
18.4299,4580994
18.4347,4605771
18.4394,4450732
18.4442,4444602
18.449,4459057
18.4537,4434619
18.4585,4438788
18.4632,4421190
18.468,4364761
18.4728,4403954
18.4775,4363897
18.4823,4364958
18.487,4357619
18.4918,4274892
18.4966,4284059
18.5013,4299286
18.5061,4323604
18.5109,4267546
18.5156,4294217
18.5204,4280199
18.5251,4278887
18.5299,4222759
18.5346,4201827
18.5394,4215785
18.5442,4129940
18.549,4129051
18.5537,4166355
18.5585,4107820
18.5632,4105655
18.568,4078299
18.5727,4157726
18.5775,4163139
18.5823,4156592
18.587,4108237
18.5918,4213127
18.5966,4172669
18.6013,4240564
18.6061,4246518
18.6108,4252470
18.6156,4408726
18.6204,4783079
18.6251,5171688
18.6299,5712846
18.6347,5901713
18.6394,5852889
18.6442,5584771
18.6489,5076911
18.6537,4635007
18.6585,4461689
18.6632,4341546
18.668,4283246
18.6728,4335653
18.6775,4702927
18.6823,5891027
18.687,9370417
18.6918,18315112
18.6966,34505492
18.7013,54477492
18.7061,67363944
18.7109,66418208
18.7156,55417576
18.7204,38375664
18.7251,24014988
18.7299,15264647
18.7347,10699166
18.7394,8320726
18.7442,7166929
18.749,6478191
18.7537,6033690
18.7585,5699100
18.7632,5508953
18.768,5257542
18.7728,5122400
18.7775,4952549
18.7823,4817972
18.7871,4856910
18.7918,4724337
18.7966,4542770
18.8013,4528151
18.8061,4499520
18.8109,4459581
18.8156,4327470
18.8204,4427779
18.8251,4444418
18.8299,4683912
18.8347,5245793
18.8394,6518824
18.8442,7961080
18.849,9250628
18.8537,9529689
18.8585,9210440
18.8632,8199085
18.868,6913530
18.8728,5814077
18.8775,5214910
18.8823,4747343
18.8871,4526029
18.8918,4381629
18.8966,4260201
18.9013,4221114
18.9061,4208118
18.9109,4215990
18.9156,4094106
18.9204,4077048
18.9251,3986790
18.9299,4062793
18.9347,4091105
18.9394,4033300
18.9442,4005420
18.949,3999863
18.9537,4036497
18.9585,3941486
18.9632,3945164
18.968,3997059
18.9728,4045051
18.9775,3925865
18.9823,3838884
18.9871,3890946
18.9918,3932004
18.9966,3920521
19.0013,3883904
19.0061,3878153
19.0109,3838156
19.0156,3931045
19.0204,3941738
19.0251,3934521
19.0299,3953409
19.0347,3883193
19.0394,3842319
19.0442,3863449
19.049,3898404
19.0537,3937487
19.0585,3878976
19.0632,3831688
19.068,3895836
19.0728,3789502
19.0775,3912925
19.0823,3762090
19.0871,3852193
19.0918,3768752
19.0966,3740637
19.1013,3818680
19.1061,3788225
19.1108,3882474
19.1156,3819702
19.1204,3765107
19.1251,3805757
19.1299,3839533
19.1347,3787126
19.1394,3702399
19.1442,3771097
19.1489,3742173
19.1537,3646830
19.1585,3718608
19.1632,3813947
19.168,3628546
19.1728,3760026
19.1775,3770707
19.1823,3782506
19.187,3854715
19.1918,3827743
19.1966,3858660
19.2013,4228297
19.2061,4711639
19.2109,6374929
19.2156,9400446
19.2204,14778170
19.2251,22718098
19.2299,30634196
19.2347,35697132
19.2394,36671264
19.2442,32000176
19.249,24803842
19.2537,17250062
19.2585,11785420
19.2632,8663075
19.268,6977813
19.2728,5864063
19.2775,5280627
19.2823,4965108
19.2871,4826002
19.2918,4828602
19.2966,4955178
19.3013,5083276
19.3061,5592635
19.3109,6001135
19.3156,6460312
19.3204,6484734
19.3252,6243176
19.3299,5823647
19.3347,5244585
19.3394,4821768
19.3442,4442302
19.349,4316872
19.3537,4150506
19.3585,4097540
19.3632,4100292
19.368,3913425
19.3728,3984478
19.3775,3866067
19.3823,3921667
19.3871,3830020
19.3918,3828567
19.3966,3831830
19.4013,3760236
19.4061,3752064
19.4109,3810959
19.4156,3726942
19.4204,3750581
19.4252,3750421
19.4299,3778023
19.4347,3833300
19.4394,3810773
19.4442,3998197
19.449,4176831
19.4537,4907863
19.4585,6306199
19.4632,9367235
19.468,14345269
19.4728,21509442
19.4775,29644002
19.4823,35857908
19.4871,36543900
19.4918,31986024
19.4966,24317378
19.5013,17505922
19.5061,12407259
19.5109,9300804
19.5156,7322777
19.5204,6302600
19.5252,5589798
19.5299,5177277
19.5347,4854962
19.5394,4699828
19.5442,4518497
19.549,4591132
19.5537,4345508
19.5585,4243837
19.5633,4145987
19.568,4114247
19.5728,4126860
19.5775,4106371
19.5823,4008071
19.5871,3923985
19.5918,3897566
19.5966,4010613
19.6013,3945038
19.6061,3856368
19.6109,3787216
19.6156,3737386
19.6204,3794902
19.6252,3793124
19.6299,3788041
19.6347,3762692
19.6394,3772778
19.6442,3818793
19.649,3731935
19.6537,3721694
19.6585,3639680
19.6633,3717368
19.668,3803054
19.6728,3644220
19.6775,3629268
19.6823,3658902
19.687,3630539
19.6918,3554910
19.6966,3683133
19.7013,3690154
19.7061,3577968
19.7109,3725627
19.7156,3729090
19.7204,3686689
19.7251,3676675
19.7299,3599492
19.7347,3687436
19.7394,3656661
19.7442,3664196
19.749,3631039
19.7537,3584216
19.7585,3632900
19.7632,3599357
19.768,3579031
19.7728,3602256
19.7775,3660007
19.7823,3541224
19.7871,3576070
19.7918,3599425
19.7966,3554007
19.8013,3614298
19.8061,3504466
19.8109,3622240
19.8156,3558558
19.8204,3538294
19.8252,3533664
19.8299,3548524
19.8347,3598554
19.8394,3514536
19.8442,3538612
19.849,3516889
19.8537,3425558
19.8585,3513474
19.8633,3569718
19.868,3581527
19.8728,3508667
19.8775,3523200
19.8823,3535785
19.8871,3471433
19.8918,3586428
19.8966,3615158
19.9014,3624443
19.9061,3583766
19.9109,3686851
19.9156,3716180
19.9204,3666950
19.9252,3723835
19.9299,3745938
19.9347,3611717
19.9394,3555457
19.9442,3482517
19.949,3580019
19.9537,3526209
19.9585,3497279
19.9633,3539968
19.968,3519415
19.9728,3595900
19.9775,3533102
19.9823,3654147
19.9871,3789519
19.9918,3874510
19.9966,4233228
20.0014,4538960
20.0061,4989763
20.0109,5395643
20.0156,5610271
20.0204,5610955
20.0252,5452003
20.0299,5097960
20.0347,4689990
20.0394,4288230
20.0442,4011207
20.049,3879182
20.0537,3720951
20.0585,3676270
20.0633,3637435
20.068,3598682
20.0728,3593107
20.0775,3554531
20.0823,3548595
20.0871,3581423
20.0918,3631703
20.0966,3592557
20.1014,3606307
20.1061,3584361
20.1109,3546173
20.1156,3506542
20.1204,3568852
20.1252,3551471
20.1299,3407744
20.1347,3486407
20.1394,3429981
20.1442,3598318
20.149,3409719
20.1537,3439755
20.1585,3409043
20.1633,3435909
20.168,3437545
20.1728,3419016
20.1775,3432662
20.1823,3538615
20.1871,3639768
20.1918,3669021
20.1966,3711618
20.2014,3813235
20.2061,3794223
20.2109,3801745
20.2156,3761038
20.2204,3674391
20.2251,3644268
20.2299,3595527
20.2347,3536943
20.2395,3438473
20.2442,3474807
20.249,3420434
20.2537,3510869
20.2585,3424019
20.2632,3420218
20.268,3448045
20.2728,3439819
20.2775,3403721
20.2823,3435749
20.2871,3481572
20.2918,3435615
20.2966,3411226
20.3013,3377511
20.3061,3338602
20.3109,3421601
20.3156,3399950
20.3204,3419655
20.3252,3402078
20.3299,3380040
20.3347,3377088
20.3394,3366855
20.3442,3355778
20.349,3405328
20.3537,3414803
20.3585,3470448
20.3633,3410812
20.368,3363174
20.3728,3432863
20.3775,3381644
20.3823,3356774
20.3871,3352513
20.3918,3239896
20.3966,3481725
20.4014,3403795
20.4061,3405402
20.4109,3400839
20.4156,3394947
20.4204,3343748
20.4252,3259816
20.4299,3293321
20.4347,3354145
20.4395,3322436
20.4442,3404826
20.449,3458393
20.4537,3356986
20.4585,3358445
20.4633,3289585
20.468,3374571
20.4728,3347436
20.4775,3303726
20.4823,3353152
20.4871,3375637
20.4918,3357747
20.4966,3393075
20.5014,3411424
20.5061,3375041
20.5109,3282626
20.5156,3358775
20.5204,3307228
20.5252,3370685
20.5299,3241666
20.5347,3376286
20.5395,3268102
20.5442,3290950
20.549,3296473
20.5537,3282935
20.5585,3328496
20.5633,3307158
20.568,3296386
20.5728,3297578
20.5776,3313032
20.5823,3350214
20.5871,3258598
20.5918,3313705
20.5966,3370523
20.6014,3263439
20.6061,3282139
20.6109,3351452
20.6156,3252392
20.6204,3273583
20.6252,3280426
20.6299,3274680
20.6347,3249408
20.6395,3341047
20.6442,3295658
20.649,3334138
20.6537,3604671
20.6585,3482588
20.6633,3349347
20.668,3372913
20.6728,3356768
20.6776,3404788
20.6823,3387795
20.6871,3446866
20.6918,3519662
20.6966,3526581
20.7014,3675466
20.7061,3691723
20.7109,3812923
20.7156,3711351
20.7204,3735012
20.7252,3682657
20.7299,3551797
20.7347,3566830
20.7395,3476205
20.7442,3303328
20.749,3388523
20.7537,3461227
20.7585,3342444
20.7633,3317478
20.768,3282834
20.7728,3331654
20.7776,3245169
20.7823,3332064
20.7871,3351385
20.7918,3351276
20.7966,3328583
20.8013,3381558
20.8061,3356924
20.8109,3341870
20.8156,3399974
20.8204,3359037
20.8252,3403686
20.8299,3399214
20.8347,3338386
20.8394,3382632
20.8442,3429044
20.849,3342022
20.8537,3331904
20.8585,3232654
20.8633,3259944
20.868,3283904
20.8728,3328314
20.8775,3313834
20.8823,3308446
20.8871,3332330
20.8918,3280055
20.8966,3310164
20.9014,3342598
20.9061,3226193
20.9109,3316569
20.9156,3294220
20.9204,3239285
20.9252,3238296
20.9299,3269921
20.9347,3237223
20.9395,3282458
20.9442,3280455
20.949,3193146
20.9537,3338417
20.9585,3136865
20.9633,3290078
20.968,3265544
20.9728,3236967
20.9776,3196344
20.9823,3209003
20.9871,3242804
20.9918,3335390
20.9966,3259428
21.0014,3295122
21.0061,3302227
21.0109,3349938
21.0157,3423974
21.0204,3389815
21.0252,3386962
21.0299,3539250
21.0347,3608276
21.0395,3639071
21.0442,3804165
21.049,3779377
21.0537,3695256
21.0585,3685675
21.0633,3625329
21.068,3692375
21.0728,3573958
21.0776,3478983
21.0823,3379908
21.0871,3389750
21.0918,3355730
21.0966,3337964
21.1014,3344258
21.1061,3303547
21.1109,3323434
21.1157,3273620
21.1204,3289315
21.1252,3274690
21.1299,3287889
21.1347,3266539
21.1395,3308180
21.1442,3301982
21.149,3229790
21.1537,3232776
21.1585,3240128
21.1633,3341599
21.168,3241694
21.1728,3250966
21.1776,3196900
21.1823,3242902
21.1871,3305807
21.1918,3271021
21.1966,3179318
21.2014,3247399
21.2061,3296899
21.2109,3224203
21.2157,3278969
21.2204,3239676
21.2252,3258730
21.2299,3296764
21.2347,3246234
21.2395,3283334
21.2442,3232810
21.249,3178462
21.2538,3294341
21.2585,3217844
21.2633,3233710
21.268,3231043
21.2728,3255564
21.2776,3294561
21.2823,3246487
21.2871,3336532
21.2918,3212258
21.2966,3227794
21.3014,3179364
21.3061,3268898
21.3109,3212070
21.3157,3216366
21.3204,3198458
21.3252,3241962
21.3299,3208234
21.3347,3220688
21.3394,3174402
21.3442,3254214
21.349,3260044
21.3538,3217397
21.3585,3232039
21.3633,3155460
21.368,3303350
21.3728,3203819
21.3775,3183657
21.3823,3230187
21.3871,3304711
21.3918,3224230
21.3966,3115969
21.4014,3205039
21.4061,3281995
21.4109,3217852
21.4156,3317365
21.4204,3314348
21.4252,3292533
21.4299,3158513
21.4347,3254120
21.4395,3195303
21.4442,3280267
21.449,3227812
21.4537,3187966
21.4585,3239204
21.4633,3169696
21.468,3193370
21.4728,3215830
21.4776,3207053
21.4823,3152941
21.4871,3131704
21.4918,3269392
21.4966,3209671
