D:\DATA\HAMBERGER\NICK\20230701\20230701_5-26-23_NBenthi_18.D  2 Jul 23  12:16 am
Start of data points
4.09152,2346462
4.09628,2280082
4.10105,2289995
4.1058,2253655
4.11057,2273547
4.11533,2244818
4.12008,2279399
4.12485,2350600
4.12962,2436855
4.13438,2430774
4.13913,2283043
4.1439,2351685
4.14867,2382141
4.15343,2237137
4.15818,2143247
4.16295,2124544
4.16772,2138717
4.17247,2033423
4.17723,2106706
4.182,2065140
4.18677,2070233
4.19152,2209366
4.19628,2154625
4.20105,2115894
4.2058,2036100
4.21057,1988762
4.21533,1925907
4.2201,1942785
4.22485,1926601
4.22962,1825060
4.23438,1874233
4.23913,1933798
4.2439,1958239
4.24867,1828317
4.25343,1843716
4.25818,1864116
4.26295,1849468
4.26772,1852573
4.27247,1894768
4.27723,1842069
4.282,2120498
4.28677,2303510
4.29152,2064435
4.29628,1811932
4.30105,1705479
4.3058,1699067
4.31057,1737947
4.31533,1652554
4.3201,1725526
4.32485,1764815
4.32962,1809904
4.33438,1922144
4.33915,1798333
4.3439,1760537
4.34867,1695606
4.35343,1797197
4.35818,1831190
4.36295,1886487
4.36772,1925532
4.37248,1969838
4.37723,1973320
4.382,1984396
4.38677,1779175
4.39152,1797623
4.39628,1777585
4.40105,1721333
4.40582,1699444
4.41057,1671378
4.41533,1688208
4.4201,1655575
4.42485,1772095
4.42962,1833524
4.43438,1902548
4.43915,1719319
4.4439,1761072
4.44867,1800143
4.45343,1802521
4.45818,1648589
4.46295,1639975
4.46772,1668382
4.47248,1629667
4.47723,1635732
4.482,1608202
4.48677,1609457
4.49153,1640888
4.49628,1596892
4.50105,1643780
4.50582,1609604
4.51057,1569821
4.51533,1671084
4.5201,1745674
4.52487,1829633
4.52962,1700894
4.53438,1618197
4.53915,1592306
4.5439,1656255
4.54867,1719282
4.55343,1671423
4.5582,1626122
4.56295,1604025
4.56772,1539044
4.57248,1645426
4.57723,1858026
4.582,2188156
4.58677,2186310
4.59153,2006454
4.59628,1782395
4.60105,1658725
4.60582,1577869
4.61057,1560209
4.61533,1524440
4.6201,1496776
4.62487,1526599
4.62962,1471265
4.63438,1460686
4.63915,1471819
4.6439,1441885
4.64867,1459242
4.65343,1501840
4.6582,1466126
4.66295,1444919
4.66772,1493718
4.67248,1485974
4.67725,1526531
4.682,1464646
4.68677,1472670
4.69153,1394368
4.69628,1485344
4.70105,1482236
4.70582,1364808
4.71058,1403189
4.71533,1408891
4.7201,1426739
4.72487,1369810
4.72962,1375376
4.73438,1391492
4.73915,1385821
4.74392,1370736
4.74867,1363408
4.75343,1395878
4.7582,1381678
4.76295,1347957
4.76772,1408445
4.77248,1355898
4.77725,1407567
4.782,1404299
4.78677,1347637
4.79153,1368208
4.79628,1330314
4.80105,1359760
4.80582,1342294
4.81058,1397499
4.81533,1402459
4.8201,1319463
4.82487,1391735
4.82962,1376574
4.83438,1419791
4.83915,1355030
4.84392,1301460
4.84867,1360119
4.85343,1328153
4.8582,1310343
4.86297,1334872
4.86772,1318684
4.87248,1317819
4.87725,1383532
4.882,1373091
4.88677,1369653
4.89153,1348463
4.8963,1329079
4.90105,1347383
4.90582,1320037
4.91058,1352049
4.91533,1372955
4.9201,1340882
4.92487,1388382
4.92963,1348914
4.93438,1370013
4.93915,1450735
4.94392,1553764
4.94867,1384684
4.95343,1402841
4.9582,1398929
4.96297,1342881
4.96772,1324739
4.97248,1402646
4.97725,1336597
4.982,1344901
4.98677,1375030
4.99153,1408367
4.9963,1390478
5.00105,1347291
5.00582,1390190
5.01058,1364329
5.01535,1365483
5.0201,1368480
5.02487,1334731
5.02963,1315833
5.03438,1361370
5.03915,1347845
5.04392,1359626
5.04868,1354500
5.05343,1380404
5.0582,1344167
5.06297,1313730
5.06772,1361409
5.07248,1318498
5.07725,1283526
5.08202,1275714
5.08677,1255477
5.09153,1303834
5.0963,1348181
5.10105,1369597
5.10582,1338117
5.11058,1315459
5.11535,1309890
5.1201,1275883
5.12487,1329265
5.12963,1377409
5.13438,1350317
5.13915,1371365
5.14392,1377350
5.14868,1444895
5.15343,1459821
5.1582,1441967
5.16297,1504319
5.16772,1499863
5.17248,1543020
5.17725,1470988
5.18202,1496672
5.18677,1477832
5.19153,1494979
5.1963,1463204
5.20107,1426496
5.20582,1465352
5.21058,1447491
5.21535,1476431
5.2201,1438599
5.22487,1461844
5.22963,1422722
5.2344,1533836
5.23915,1459080
5.24392,1552280
5.24868,1484666
5.25343,1459446
5.2582,1460535
5.26297,1430594
5.26773,1520787
5.27248,1602367
5.27725,1841211
5.28202,1845975
5.28677,1664850
5.29153,1601576
5.2963,1488002
5.30107,1502861
5.30582,1505426
5.31058,1502399
5.31535,1440748
5.3201,1442890
5.32487,1440267
5.32963,1417775
5.3344,1400215
5.33915,1430049
5.34392,1428996
5.34868,1443006
5.35345,1452658
5.3582,1425275
5.36297,1442535
5.36773,1434319
5.37248,1436536
5.37725,1393060
5.38202,1473517
5.38678,1436084
5.39153,1415348
5.3963,1389080
5.40107,1429797
5.40582,1420735
5.41058,1393025
5.41535,1442314
5.42012,1401881
5.42487,1413321
5.42963,1428242
5.4344,1445796
5.43915,1430988
5.44392,1410509
5.44868,1470959
5.45345,1441095
5.4582,1455270
5.46297,1440519
5.46773,1417773
5.47248,1417262
5.47725,1401506
5.48202,1351347
5.48678,1375184
5.49153,1366832
5.4963,1410128
5.50107,1405941
5.50582,1355837
5.51058,1397798
5.51535,1363178
5.52012,1390317
5.52487,1402262
5.52963,1424486
5.5344,1369127
5.53917,1378923
5.54392,1353450
5.54868,1339913
5.55345,1363933
5.5582,1313212
5.56297,1387345
5.56773,1338461
5.5725,1336387
5.57725,1380044
5.58202,1347903
5.58678,1310543
5.59153,1339961
5.5963,1314517
5.60107,1286898
5.60583,1359884
5.61058,1323489
5.61535,1297236
5.62012,1363930
5.62487,1283052
5.62963,1313264
5.6344,1334045
5.63917,1327035
5.64392,1301554
5.64868,1329323
5.65345,1355152
5.6582,1283214
5.66297,1282672
5.66773,1351833
5.6725,1330039
5.67725,1349835
5.68202,1309393
5.68678,1338277
5.69153,1316827
5.6963,1288523
5.70107,1316616
5.70583,1305690
5.71058,1297331
5.71535,1414165
5.72012,1301149
5.72488,1256399
5.72963,1322977
5.7344,1259981
5.73917,1292285
5.74392,1250941
5.74868,1259180
5.75345,1300645
5.75822,1280901
5.76297,1272383
5.76773,1269934
5.7725,1282259
5.77725,1305513
5.78202,1336419
5.78678,1289866
5.79155,1285416
5.7963,1305789
5.80107,1369726
5.80583,1585617
5.81058,2084892
5.81535,2427124
5.82012,2444965
5.82488,2369827
5.82963,2487133
5.8344,2493124
5.83917,2388984
5.84392,2369780
5.84868,2413475
5.85345,2300981
5.85822,2307501
5.86297,2160457
5.86773,2152557
5.8725,2129765
5.87727,2159647
5.88202,2148987
5.88678,2119582
5.89155,2095404
5.8963,2014004
5.90107,2019440
5.90583,1920448
5.9106,1938564
5.91535,1925504
5.92012,1831864
5.92488,1790244
5.92963,1782448
5.9344,1761045
5.93917,1697375
5.94393,1662008
5.94868,1614323
5.95345,1671140
5.95822,1652807
5.96297,1633622
5.96773,1726254
5.9725,1831300
5.97727,1822984
5.98202,1751201
5.98678,1659152
5.99155,1670854
5.9963,1564263
6.00107,1522566
6.00583,1554817
6.0106,1561365
6.01535,1490378
6.02012,1441885
6.02488,1490176
6.02963,1508433
6.0344,1458842
6.03917,1490550
6.04393,1419617
6.04868,1457586
6.05345,1439839
6.05822,1468783
6.06298,1386406
6.06773,1401484
6.0725,1415270
6.07727,1441023
6.08202,1460829
6.08678,1495132
6.09155,1530849
6.09632,1508698
6.10107,1542141
6.10583,1523481
6.1106,1468670
6.11535,1409689
6.12012,1364886
6.12488,1335098
6.12965,1315962
6.1344,1339082
6.13917,1302896
6.14393,1305996
6.14868,1339420
6.15345,1344393
6.15822,1323419
6.16298,1342065
6.16773,1302048
6.1725,1350635
6.17727,1296857
6.18202,1343776
6.18678,1423540
6.19155,1437542
6.19632,1327991
6.20107,1311316
6.20583,1341131
6.2106,1280266
6.21537,1270063
6.22012,1260987
6.22488,1307438
6.22965,1347782
6.2344,1317220
6.23917,1300973
6.24393,1311753
6.2487,1257494
6.25345,1255724
6.25822,1259065
6.26298,1305874
6.26773,1268762
6.2725,1236305
6.27727,1213541
6.28203,1259453
6.28678,1269489
6.29155,1213448
6.29632,1216865
6.30107,1172120
6.30583,1179862
6.3106,1123592
6.31537,1164978
6.32012,1250499
6.32488,1194420
6.32965,1192068
6.3344,1212849
6.33917,1234315
6.34393,1216634
6.3487,1149609
6.35345,1199656
6.35822,1182267
6.36298,1211611
6.36773,1170476
6.3725,1160867
6.37727,1153047
6.38203,1166589
6.38678,1160288
6.39155,1099605
6.39632,1157832
6.40108,1171495
6.40583,1150678
6.4106,1196155
6.41537,1198945
6.42012,1253641
6.42488,1307454
6.42965,1236823
6.43442,1263075
6.43917,1217915
6.44393,1167585
6.4487,1170899
6.45345,1116149
6.45822,1139525
6.46298,1084374
6.46775,1098280
6.4725,1113187
6.47727,1141591
6.48203,1131740
6.48678,1155548
6.49155,1127800
6.49632,1133616
6.50108,1068625
6.50583,1092327
6.5106,1124741
6.51537,1102333
6.52012,1054977
6.52488,1126423
6.52965,1078661
6.53442,1107517
6.53917,1120201
6.54393,1119526
6.5487,1104708
6.55345,1108722
6.55822,1085854
6.56298,1068296
6.56775,1113902
6.5725,1105676
6.57727,1065307
6.58203,1069811
6.5868,1087841
6.59155,1053536
6.59632,1054247
6.60108,1053711
6.60583,1084055
6.6106,1117815
6.61537,1052461
6.62013,1029866
6.62488,1063440
6.62965,1020319
6.63442,1036038
6.63917,1033306
6.64393,1043888
6.6487,1006776
6.65347,1031104
6.65822,1041905
6.66298,1069675
6.66775,1054496
6.6725,1016518
6.67727,1003571
6.68203,1001150
6.6868,1031254
6.69155,1024122
6.69632,991171
6.70108,993814
6.70583,1047495
6.7106,997314
6.71537,992722
6.72013,1023042
6.72488,1004188
6.72965,1038322
6.73442,1039678
6.73918,1041308
6.74393,1008353
6.7487,1034812
6.75347,1038311
6.75822,1032751
6.76298,1038729
6.76775,1037958
6.77252,986897
6.77727,1072029
6.78203,1036314
6.7868,1052011
6.79155,1052375
6.79632,1044597
6.80108,1046953
6.80585,1055817
6.8106,1032487
6.81537,1053383
6.82013,1029319
6.82488,1028501
6.82965,1034103
6.83442,1044745
6.83918,1078814
6.84393,1139174
6.8487,1092910
6.85347,1124926
6.85822,1095699
6.86298,1050851
6.86775,1033908
6.87252,1022614
6.87727,1004481
6.88203,951329
6.8868,1029733
6.89155,982771
6.89632,989352
6.90108,1004505
6.90585,1007156
6.9106,990848
6.91537,1018249
6.92013,985214
6.9249,998809
6.92965,989252
6.93442,976384
6.93918,986712
6.94393,969875
6.9487,964212
6.95347,976905
6.95823,930904
6.96298,970866
6.96775,1004371
6.97252,969438
6.97727,952488
6.98203,943605
6.9868,966643
6.99157,934153
6.99632,929789
7.00108,940997
7.00585,970730
7.0106,955602
7.01537,973803
7.02013,944428
7.0249,939477
7.02965,990389
7.03442,955330
7.03918,894630
7.04393,934470
7.0487,945988
7.05347,922626
7.05823,932217
7.06298,925603
7.06775,921878
7.07252,928430
7.07728,906800
7.08203,898987
7.0868,883486
7.09157,894417
7.09632,946317
7.10108,889328
7.10585,913067
7.11062,899306
7.11537,889124
7.12013,838455
7.1249,889479
7.12965,912157
7.13442,900811
7.13918,878324
7.14395,908343
7.1487,871344
7.15347,875328
7.15823,906470
7.16298,902458
7.16775,844266
7.17252,854727
7.17728,869338
7.18203,891140
7.1868,831301
7.19157,857329
7.19632,878652
7.20108,881296
7.20585,854791
7.21062,851295
7.21537,851748
7.22013,883798
7.2249,873554
7.22965,849899
7.23442,881651
7.23918,860813
7.24395,868378
7.2487,834244
7.25347,830073
7.25823,822212
7.263,872085
7.26775,860591
7.27252,857240
7.27728,866380
7.28203,834029
7.2868,854484
7.29157,823691
7.29633,797864
7.30108,821513
7.30585,806210
7.31062,795973
7.31537,786536
7.32013,824757
7.3249,822063
7.32967,847628
7.33442,795292
7.33918,834613
7.34395,828760
7.3487,849192
7.35347,817556
7.35823,869809
7.363,805864
7.36775,819133
7.37252,842130
7.37728,816242
7.38203,765586
7.3868,815458
7.39157,832769
7.39633,822125
7.40108,825218
7.40585,854824
7.41062,790054
7.41537,782829
7.42013,799134
7.4249,810995
7.42967,806639
7.43442,791600
7.43918,831911
7.44395,845318
7.44872,805881
7.45347,801798
7.45823,793709
7.463,775660
7.46775,799032
7.47252,770968
7.47728,772433
7.48205,774262
7.4868,756931
7.49157,787239
7.49633,804730
7.50108,796628
7.50585,784886
7.51062,821847
7.51538,791291
7.52013,805682
7.5249,816397
7.52967,795478
7.53442,879303
7.53918,905959
7.54395,935617
7.54872,968604
7.55347,957641
7.55823,898075
7.563,881150
7.56775,789700
7.57252,806040
7.57728,810210
7.58205,798158
7.5868,817284
7.59157,768385
7.59633,793778
7.6011,802472
7.60585,801987
7.61062,772219
7.61538,799404
7.62013,807639
7.6249,774917
7.62967,792871
7.63443,795352
7.63918,736252
7.64395,760406
7.64872,751365
7.65347,744092
7.65823,761271
7.663,755772
7.66777,797048
7.67252,752649
7.67728,755939
7.68205,787317
7.6868,743680
7.69157,747942
7.69633,720591
7.7011,752942
7.70585,726469
7.71062,764137
7.71538,703893
7.72013,727160
7.7249,734714
7.72967,711519
7.73443,708714
7.73918,738120
7.74395,735236
7.74872,747946
7.75347,727996
7.75823,766043
7.763,739916
7.76777,718447
7.77252,716002
7.77728,711452
7.78205,749173
7.78682,754060
7.79157,739710
7.79633,744786
7.8011,749192
7.80585,727788
7.81062,731039
7.81538,724809
7.82015,730929
7.8249,727009
7.82967,753332
7.83443,768253
7.83918,759762
7.84395,752681
7.84872,747005
7.85348,741312
7.85823,716053
7.863,747987
7.86777,733854
7.87252,691125
7.87728,737177
7.88205,697049
7.88682,728583
7.89157,730014
7.89633,727901
7.9011,721934
7.90585,722690
7.91062,717093
7.91538,707644
7.92015,765889
7.9249,757074
7.92967,825212
7.93443,850368
7.9392,889920
7.94395,886779
7.94872,806441
7.95348,815070
7.95823,743030
7.963,717312
7.96777,734022
7.97253,742009
7.97728,699199
7.98205,744056
7.98682,713442
7.99157,699548
7.99633,693339
8.0011,718490
8.00587,696272
8.01062,678458
8.01538,688035
8.02015,679135
8.0249,709408
8.02967,659936
8.03443,709966
8.0392,684114
8.04395,663466
8.04872,704609
8.05348,707145
8.05823,688699
8.063,713395
8.06777,701970
8.07253,765164
8.07728,713383
8.08205,771093
8.08682,764805
8.09157,686408
8.09633,700507
8.1011,674927
8.10587,730796
8.11062,710287
8.11538,721251
8.12015,697878
8.12492,750564
8.12967,725797
8.13443,732894
8.1392,738826
8.14395,708535
8.14872,717304
8.15348,691066
8.15825,676453
8.163,687834
8.16777,681190
8.17253,674642
8.17728,669260
8.18205,672504
8.18682,643203
8.19158,689605
8.19633,638224
8.2011,644680
8.20587,669403
8.21062,665303
8.21538,675473
8.22015,678001
8.22492,688918
8.22967,678010
8.23443,667715
8.2392,656732
8.24395,680171
8.24872,637743
8.25348,668001
8.25825,674542
8.263,678089
8.26777,674264
8.27253,643131
8.27728,640599
8.28205,664076
8.28682,651916
8.29158,622440
8.29633,650517
8.3011,646504
8.30587,627267
8.31063,602680
8.31538,656481
8.32015,607660
8.32492,628654
8.32967,661117
8.33443,674035
8.3392,610009
8.34397,649681
8.34872,642996
8.35348,693822
8.35825,631549
8.363,640146
8.36777,649092
8.37253,643661
8.3773,646652
8.38205,639847
8.38682,610790
8.39158,622620
8.39633,665345
8.4011,613454
8.40587,606070
8.41063,585928
8.41538,608821
8.42015,633169
8.42492,615113
8.42967,619755
8.43443,622746
8.4392,616981
8.44397,601648
8.44872,628490
8.45348,622528
8.45825,605482
8.46302,639933
8.46777,641300
8.47253,621046
8.4773,625509
8.48205,616236
8.48682,622643
8.49158,610451
8.49635,610401
8.5011,627356
8.50587,629648
8.51063,626872
8.51538,640920
8.52015,642583
8.52492,587165
8.52968,601556
8.53443,612573
8.5392,617727
8.54397,603207
8.54872,611382
8.55348,610927
8.55825,593214
8.56302,587510
8.56777,597621
8.57253,584853
8.5773,583462
8.58205,605950
8.58682,616354
8.59158,603169
8.59635,620560
8.6011,610826
8.60587,590637
8.61063,618112
8.61538,619782
8.62015,617406
8.62492,617382
8.62968,585895
8.63443,625098
8.6392,581737
8.64397,616359
8.64873,609723
8.65348,594129
8.65825,610939
8.66302,615803
8.66777,603157
8.67253,580403
8.6773,583270
8.68207,590823
8.68682,621020
8.69158,590991
8.69635,589005
8.7011,627235
8.70587,628678
8.71063,614464
8.7154,611696
8.72015,608435
8.72492,565514
8.72968,578313
8.73443,612342
8.7392,567548
8.74397,562390
8.74873,586015
8.75348,585292
8.75825,571765
8.76302,562655
8.76777,575605
8.77253,572234
8.7773,587925
8.78207,560136
8.78682,590295
8.79158,611535
8.79635,575224
8.80112,585001
8.80587,584676
8.81063,571704
8.8154,568536
8.82015,555041
8.82492,565454
8.82968,573385
8.83445,562088
8.8392,559159
8.84397,575683
8.84873,588257
8.85348,584524
8.85825,553365
8.86302,558143
8.86778,589086
8.87253,585535
8.8773,563517
8.88207,544704
8.88682,577046
8.89158,546345
8.89635,566202
8.90112,562597
8.90587,586605
8.91063,597925
8.9154,589792
8.92015,584530
8.92492,589607
8.92968,585155
8.93445,555106
8.9392,568198
8.94397,552662
8.94873,539169
8.95348,548571
8.95825,549687
8.96302,557050
8.96778,559369
8.97253,561531
8.9773,552423
8.98207,529134
8.98683,542513
8.99158,615085
8.99635,601010
9.00112,593717
9.00587,623847
9.01063,607997
9.0154,618743
9.02017,641932
9.02492,650053
9.02968,620432
9.03445,610302
9.0392,574328
9.04397,592139
9.04873,583288
9.0535,591681
9.05825,595723
9.06302,567161
9.06778,566722
9.07253,574823
9.0773,558461
9.08207,544522
9.08683,531762
9.09158,551756
9.09635,586688
9.10112,561262
9.10587,541056
9.11063,571959
9.1154,568749
9.12017,606418
9.12492,657808
9.12968,720393
9.13445,787012
9.1392,778530
9.14397,813864
9.14873,804038
9.1535,748356
9.15825,734326
9.16302,706942
9.16778,681686
9.17255,608737
9.1773,627378
9.18207,597040
9.18683,578701
9.19158,601652
9.19635,575065
9.20112,560777
9.20588,579897
9.21063,558596
9.2154,563000
9.22017,547614
9.22492,567740
9.22968,558782
9.23445,531578
9.23922,570409
9.24397,529822
9.24873,542885
9.2535,539813
9.25825,543912
9.26302,543359
9.26778,569197
9.27255,516287
9.2773,536207
9.28207,558123
9.28683,563376
9.29158,539481
9.29635,512908
9.30112,552094
9.30588,540634
9.31063,546712
9.3154,562879
9.32017,559856
9.32493,532506
9.32968,519660
9.33445,527500
9.33922,512035
9.34397,516621
9.34873,554817
9.3535,559482
9.35827,560627
9.36302,548746
9.36778,552499
9.37255,553716
9.3773,560966
9.38207,532123
9.38683,536496
9.3916,537401
9.39635,576446
9.40112,525451
9.40588,529480
9.41063,558220
9.4154,562064
9.42017,524980
9.42493,530488
9.42968,533922
9.43445,554998
9.43922,535126
9.44397,492105
9.44873,518868
9.4535,535996
9.45827,521610
9.46302,518663
9.46778,534129
9.47255,498139
9.4773,489253
9.48207,506981
9.48683,490280
9.4916,528723
9.49635,521880
9.50112,533151
9.50588,511746
9.51065,492632
9.5154,528692
9.52017,529815
9.52493,502628
9.52968,491810
9.53445,493634
9.53922,530446
9.54398,504289
9.54873,520733
9.5535,524282
9.55827,473506
9.56302,518587
9.56778,498850
9.57255,542857
9.57732,517012
9.58207,502580
9.58683,527826
9.5916,543578
9.59635,548120
9.60112,553491
9.60588,540116
9.61065,531317
9.6154,543989
9.62017,555826
9.62493,531749
9.62968,570553
9.63445,557480
9.63922,554656
9.64398,548959
9.64873,550721
9.6535,565739
9.65827,535208
9.66303,532819
9.66778,530275
9.67255,514372
9.67732,534642
9.68207,519283
9.68683,535942
9.6916,513317
9.69637,503275
9.70112,516334
9.70588,487815
9.71065,521221
9.7154,483965
9.72017,540365
9.72493,512682
9.7297,483991
9.73445,494365
9.73922,520712
9.74398,534698
9.74873,496282
9.7535,482192
9.75827,514192
9.76303,506171
9.76778,520250
9.77255,485223
9.77732,541125
9.78207,497738
9.78683,514626
9.7916,527374
9.79637,508703
9.80112,515751
9.80588,521366
9.81065,523545
9.8154,517682
9.82017,493459
9.82493,504305
9.8297,522029
9.83445,498494
9.83922,494768
9.84398,495882
9.84875,470448
9.8535,501056
9.85827,519272
9.86303,487927
9.86778,506229
9.87255,519262
9.87732,500640
9.88208,508516
9.88683,494436
9.8916,503509
9.89637,493955
9.90112,496330
9.90588,513609
9.91065,507104
9.91542,498730
9.92017,489922
9.92493,508737
9.9297,486831
9.93445,486411
9.93922,513633
9.94398,465995
9.94875,536749
9.9535,508255
9.95827,561241
9.96303,542672
9.96778,569553
9.97255,614824
9.97732,616308
9.98208,663379
9.98683,694953
9.9916,697805
9.99637,740991
10.0011,705200
10.0059,697094
10.0107,657007
10.0154,626593
10.0202,597825
10.0249,528654
10.0297,554816
10.0345,548676
10.0392,523973
10.044,539034
10.0488,536637
10.0535,514837
10.0583,519212
10.063,505950
10.0678,513179
10.0726,512744
10.0773,485645
10.0821,514118
10.0868,526384
10.0916,529913
10.0964,521496
10.1011,517063
10.1059,526978
10.1107,511667
10.1154,525862
10.1202,568090
10.1249,538520
10.1297,598611
10.1345,603081
10.1392,629849
10.144,620320
10.1488,633726
10.1535,585920
10.1583,586904
10.163,555584
10.1678,570519
10.1726,501919
10.1773,532664
10.1821,562444
10.1869,537718
10.1916,529964
10.1964,550573
10.2011,554800
10.2059,551839
10.2107,610539
10.2154,590958
10.2202,580402
10.2249,597906
10.2297,537070
10.2345,586713
10.2392,568014
10.244,555983
10.2488,546004
10.2535,560410
10.2583,529191
10.263,551708
10.2678,496633
10.2726,533100
10.2773,514713
10.2821,544369
10.2869,510874
10.2916,495873
10.2964,519690
10.3011,540058
10.3059,523687
10.3107,546374
10.3154,535487
10.3202,510539
10.3249,499310
10.3297,487820
10.3345,503730
10.3392,519921
10.344,480776
10.3488,512748
10.3535,513045
10.3583,521918
10.363,495586
10.3678,517333
10.3726,531112
10.3773,525854
10.3821,553934
10.3869,509754
10.3916,517044
10.3964,476897
10.4011,517355
10.4059,490037
10.4107,512738
10.4154,530789
10.4202,511268
10.4249,505111
10.4297,511614
10.4345,535413
10.4392,540785
10.444,501906
10.4488,524949
10.4535,509182
10.4583,478126
10.463,517371
10.4678,475486
10.4726,496373
10.4773,525932
10.4821,514934
10.4869,566082
10.4916,553639
10.4964,591451
10.5011,630155
10.5059,716706
10.5107,684721
10.5154,688776
10.5202,624340
10.525,629140
10.5297,641013
10.5345,519650
10.5392,541980
10.544,529168
10.5488,520479
10.5535,531917
10.5583,489913
10.563,529556
10.5678,520163
10.5726,526762
10.5773,539177
10.5821,508565
10.5869,531361
10.5916,551131
10.5964,563961
10.6011,545221
10.6059,546969
10.6107,525926
10.6154,521807
10.6202,522218
10.625,538945
10.6297,503578
10.6345,535334
10.6392,531922
10.644,516300
10.6488,480570
10.6535,507632
10.6583,487028
10.663,472937
10.6678,499762
10.6726,531139
10.6773,512379
10.6821,504672
10.6869,522382
10.6916,565825
10.6964,543528
10.7011,565481
10.7059,546324
10.7107,581431
10.7154,572710
10.7202,580607
10.725,610277
10.7297,551255
10.7345,543463
10.7392,542424
10.744,490063
10.7488,533325
10.7535,531409
10.7583,548540
10.763,572439
10.7678,631748
10.7726,660455
10.7773,681485
10.7821,679868
10.7869,645834
10.7916,640921
10.7964,588699
10.8011,572456
10.8059,529183
10.8107,585111
10.8154,547902
10.8202,503758
10.825,527289
10.8297,552534
10.8345,525154
10.8392,524543
10.844,526521
10.8488,572795
10.8535,572044
10.8583,576685
10.8631,545550
10.8678,524988
10.8726,559678
10.8773,515945
10.8821,562508
10.8869,531896
10.8916,581230
10.8964,556769
10.9011,519869
10.9059,533101
10.9107,502205
10.9154,521841
10.9202,548303
10.925,527494
10.9297,556137
10.9345,546107
10.9392,539962
10.944,578233
10.9488,565269
10.9535,576041
10.9583,616940
10.9631,636694
10.9678,649585
10.9726,695118
10.9773,704333
10.9821,643280
10.9869,636152
10.9916,620321
10.9964,594386
11.0011,568678
11.0059,599283
11.0107,609898
11.0154,554103
11.0202,547014
11.025,567819
11.0297,562571
11.0345,592292
11.0392,593082
11.044,667700
11.0488,633127
11.0535,638670
11.0583,630252
11.0631,621651
11.0678,618467
11.0726,618588
11.0773,605456
11.0821,592696
11.0869,568798
11.0916,635340
11.0964,606804
11.1011,566704
11.1059,616234
11.1107,605656
11.1154,601346
11.1202,590410
11.125,622679
11.1297,587639
11.1345,590307
11.1392,584020
11.144,557304
11.1488,574841
11.1535,560437
11.1583,592371
11.1631,538529
11.1678,532863
11.1726,557866
11.1773,561029
11.1821,556400
11.1869,538308
11.1916,544024
11.1964,554226
11.2011,546009
11.2059,552883
11.2107,537046
11.2154,566462
11.2202,537337
11.225,525739
11.2297,557281
11.2345,544520
11.2392,572839
11.244,570712
11.2488,574014
11.2535,566199
11.2583,567304
11.2631,580964
11.2678,552533
11.2726,543576
11.2773,556826
11.2821,542817
11.2869,577598
11.2916,568693
11.2964,554639
11.3012,549094
11.3059,560880
11.3107,537380
11.3154,568359
11.3202,569310
11.325,558479
11.3297,545713
11.3345,533639
11.3392,531258
11.344,532669
11.3488,499947
11.3535,509783
11.3583,556795
11.3631,558100
11.3678,512015
11.3726,541412
11.3773,542201
11.3821,543121
11.3869,537754
11.3916,538046
11.3964,528538
11.4012,545668
11.4059,538345
11.4107,578455
11.4154,529612
11.4202,547853
11.425,547904
11.4297,553347
11.4345,565056
11.4392,570377
11.444,587043
11.4488,600469
11.4535,586314
11.4583,568196
11.4631,561639
11.4678,565546
11.4726,574037
11.4773,585826
11.4821,591929
11.4869,610729
11.4916,619984
11.4964,668982
11.5012,653915
11.5059,623577
11.5107,591721
11.5154,603073
11.5202,558930
11.525,563363
11.5297,529549
11.5345,535422
11.5392,565043
11.544,559769
11.5488,535307
11.5535,568065
11.5583,558223
11.5631,535845
11.5678,545574
11.5726,540693
11.5773,548451
11.5821,577710
11.5869,562637
11.5916,549661
11.5964,561418
11.6012,624359
11.6059,620291
11.6107,572833
11.6154,605447
11.6202,581582
11.625,577550
11.6297,567829
11.6345,569819
11.6393,530815
11.644,535494
11.6488,516001
11.6535,572152
11.6583,608121
11.6631,629455
11.6678,629055
11.6726,655842
11.6773,651217
11.6821,598079
11.6869,626341
11.6916,575034
11.6964,599584
11.7012,613453
11.7059,602507
11.7107,644069
11.7154,645195
11.7202,645227
11.725,636411
11.7297,608171
11.7345,604564
11.7393,572482
11.744,567124
11.7488,566052
11.7535,595058
11.7583,566848
11.7631,577341
11.7678,576391
11.7726,618894
11.7773,702394
11.7821,764138
11.7869,773322
11.7916,784857
11.7964,775800
11.8012,734745
11.8059,652373
11.8107,681343
11.8154,640399
11.8202,615895
11.825,596034
11.8297,592150
11.8345,597851
11.8393,584431
11.844,560938
11.8488,569036
11.8535,653103
11.8583,611437
11.8631,576994
11.8678,587259
11.8726,576995
11.8773,606232
11.8821,596466
11.8869,641013
11.8916,613876
11.8964,593874
11.9012,584815
11.9059,594247
11.9107,600268
11.9154,558326
11.9202,596032
11.925,588404
11.9297,580365
11.9345,568143
11.9393,548467
11.944,583021
11.9488,574711
11.9535,580381
11.9583,581391
11.9631,597343
11.9678,561549
11.9726,571962
11.9774,587546
11.9821,597529
11.9869,561820
11.9916,541458
11.9964,543346
12.0012,550996
12.0059,578431
12.0107,562256
12.0154,629480
12.0202,576119
12.025,602461
12.0297,599990
12.0345,636272
12.0393,569545
12.044,610358
12.0488,570364
12.0535,571358
12.0583,606192
12.0631,574918
12.0678,568509
12.0726,600029
12.0774,597248
12.0821,595548
12.0869,556011
12.0916,585073
12.0964,583278
12.1012,572859
12.1059,584834
12.1107,644110
12.1154,720597
12.1202,748985
12.125,810680
12.1297,756423
12.1345,772354
12.1393,679268
12.144,645284
12.1488,635670
12.1535,610556
12.1583,596393
12.1631,568963
12.1678,601256
12.1726,618249
12.1774,631556
12.1821,621156
12.1869,657479
12.1916,666822
12.1964,616121
12.2012,654865
12.2059,624295
12.2107,605754
12.2154,591427
12.2202,626061
12.225,582944
12.2297,609738
12.2345,604284
12.2393,587555
12.244,580070
12.2488,589091
12.2535,569234
12.2583,566453
12.2631,574823
12.2678,591355
12.2726,575677
12.2774,595497
12.2821,616050
12.2869,873162
12.2916,1628700
12.2964,4162911
12.3012,11517259
12.3059,26543040
12.3107,46338932
12.3155,61051164
12.3202,65572512
12.325,56735116
12.3297,38502612
12.3345,21256834
12.3393,9744019
12.344,4430531
12.3488,2180709
12.3535,1315415
12.3583,1023032
12.3631,953358
12.3678,828769
12.3726,796840
12.3774,778590
12.3821,787146
12.3869,787112
12.3916,742479
12.3964,785236
12.4012,768560
12.4059,752386
12.4107,703271
12.4155,743460
12.4202,701784
12.425,738406
12.4297,718095
12.4345,744148
12.4393,779688
12.444,820970
12.4488,853649
12.4535,898382
12.4583,875431
12.4631,805792
12.4678,756437
12.4726,698283
12.4774,726173
12.4821,803329
12.4869,839919
12.4916,879508
12.4964,886928
12.5012,852084
12.5059,840301
12.5107,730105
12.5155,730226
12.5202,744829
12.525,754472
12.5297,706195
12.5345,665595
12.5393,654905
12.544,705055
12.5488,712456
12.5535,701901
12.5583,715697
12.5631,675571
12.5678,670056
12.5726,689528
12.5774,671532
12.5821,680856
12.5869,677064
12.5916,712954
12.5964,668380
12.6012,682348
12.6059,740411
12.6107,713247
12.6155,766898
12.6202,802798
12.625,767165
12.6297,799149
12.6345,761563
12.6393,812303
12.644,682515
12.6488,729086
12.6536,701919
12.6583,657173
12.6631,655095
12.6678,691040
12.6726,675367
12.6774,737218
12.6821,767532
12.6869,752318
12.6916,790733
12.6964,839266
12.7012,786961
12.7059,728373
12.7107,726191
12.7155,680262
12.7202,652348
12.725,659786
12.7297,638444
12.7345,640959
12.7393,642210
12.744,668545
12.7488,646180
12.7536,601938
12.7583,694909
12.7631,653748
12.7678,674283
12.7726,647735
12.7774,648313
12.7821,667195
12.7869,689865
12.7916,678812
12.7964,687614
12.8012,688952
12.8059,708916
12.8107,661607
12.8155,692990
12.8202,655443
12.825,631660
12.8297,659945
12.8345,659684
12.8393,657344
12.844,643834
12.8488,679529
12.8536,644586
12.8583,627749
12.8631,663162
12.8678,624043
12.8726,653890
12.8774,655391
12.8821,710795
12.8869,669004
12.8916,661654
12.8964,647576
12.9012,649665
12.9059,640235
12.9107,677247
12.9155,622574
12.9202,668132
12.925,660625
12.9297,687710
12.9345,627441
12.9393,638270
12.944,653983
12.9488,646047
12.9536,625982
12.9583,644414
12.9631,654107
12.9678,633668
12.9726,625972
12.9774,666831
12.9821,656460
12.9869,634736
12.9917,666066
12.9964,648736
13.0012,639114
13.0059,654059
13.0107,652495
13.0155,661609
13.0202,666359
13.025,669594
13.0297,637419
13.0345,678038
13.0393,655045
13.044,662936
13.0488,640397
13.0536,616661
13.0583,642556
13.0631,665848
13.0678,686538
13.0726,677477
13.0774,704985
13.0821,765145
13.0869,741164
13.0917,704454
13.0964,658612
13.1012,682666
13.1059,685689
13.1107,667466
13.1155,683203
13.1202,787602
13.125,902580
13.1297,1074243
13.1345,1238630
13.1393,1348168
13.144,1295496
13.1488,1187867
13.1536,1059227
13.1583,939294
13.1631,921898
13.1678,856451
13.1726,814602
13.1774,781612
13.1821,774946
13.1869,723547
13.1917,740093
13.1964,749643
13.2012,731252
13.2059,721974
13.2107,769992
13.2155,764771
13.2202,763854
13.225,709533
13.2297,732681
13.2345,692266
13.2393,707314
13.244,673979
13.2488,707384
13.2536,698038
13.2583,734990
13.2631,668330
13.2678,699732
13.2726,702769
13.2774,696928
13.2821,681548
13.2869,701533
13.2917,656638
13.2964,693157
13.3012,667164
13.3059,687075
13.3107,695819
13.3155,681246
13.3202,683047
13.325,689713
13.3298,674755
13.3345,684866
13.3393,672992
13.344,664637
13.3488,682013
13.3536,636483
13.3583,691406
13.3631,691182
13.3678,692664
13.3726,686738
13.3774,637900
13.3821,652053
13.3869,663560
13.3917,647911
13.3964,660168
13.4012,674895
13.4059,652110
13.4107,680379
13.4155,692075
13.4202,678972
13.425,683762
13.4298,678989
13.4345,702860
13.4393,711068
13.444,713484
13.4488,685869
13.4536,658129
13.4583,658873
13.4631,623051
13.4678,688852
13.4726,658943
13.4774,677746
13.4821,686403
13.4869,680594
13.4917,746200
13.4964,728401
13.5012,707041
13.5059,696514
13.5107,689336
13.5155,732535
13.5202,698290
13.525,721555
13.5298,677882
13.5345,686993
13.5393,655517
13.544,672318
13.5488,663235
13.5536,643569
13.5583,655849
13.5631,606294
13.5678,623535
13.5726,635808
13.5774,646117
13.5821,666548
13.5869,671778
13.5917,668372
13.5964,663786
13.6012,655157
13.6059,698187
13.6107,689658
13.6155,659765
13.6202,671442
13.625,698889
13.6298,694900
13.6345,692108
13.6393,698433
13.644,738055
13.6488,703335
13.6536,696887
13.6583,658325
13.6631,681868
13.6679,701937
13.6726,702453
13.6774,687575
13.6821,660505
13.6869,680023
13.6917,644110
13.6964,643974
13.7012,672022
13.7059,669028
13.7107,671711
13.7155,668083
13.7202,679092
13.725,659000
13.7298,687672
13.7345,691949
13.7393,658778
13.744,691680
13.7488,761620
13.7536,760222
13.7583,810884
13.7631,813140
13.7679,830754
13.7726,797279
13.7774,777367
13.7821,705658
13.7869,719623
13.7917,684421
13.7964,697610
13.8012,686158
13.8059,677042
13.8107,666106
13.8155,632264
13.8202,679755
13.825,701799
13.8298,684349
13.8345,665994
13.8393,646811
13.844,687711
13.8488,672933
13.8536,659622
13.8583,695331
13.8631,702119
13.8679,779862
13.8726,818964
13.8774,838311
13.8821,839148
13.8869,801049
13.8917,752480
13.8964,735854
13.9012,783984
13.9059,807251
13.9107,787500
13.9155,779272
13.9202,783952
13.925,754619
13.9298,765054
13.9345,730233
13.9393,733261
13.944,678513
13.9488,697285
13.9536,715266
13.9583,697333
13.9631,742953
13.9679,747677
13.9726,733863
13.9774,716622
13.9821,747594
13.9869,802032
13.9917,854788
13.9964,829775
14.0012,833057
14.006,774091
14.0107,775874
14.0155,761092
14.0202,747383
14.025,717806
14.0298,746847
14.0345,720666
14.0393,791320
14.044,924465
14.0488,1081841
14.0536,1288179
14.0583,1454224
14.0631,1535547
14.0679,1389140
14.0726,1273052
14.0774,1140883
14.0821,1076001
14.0869,1067986
14.0917,996855
14.0964,921445
14.1012,891907
14.106,805162
14.1107,750328
14.1155,750017
14.1202,746208
14.125,756573
14.1298,799909
14.1345,784098
14.1393,825936
14.144,850467
14.1488,878864
14.1536,974311
14.1583,973076
14.1631,884263
14.1679,854419
14.1726,789610
14.1774,777077
14.1821,778525
14.1869,765359
14.1917,787267
14.1964,799357
14.2012,905163
14.206,896622
14.2107,911605
14.2155,882016
14.2202,849138
14.225,853398
14.2298,943050
14.2345,1085072
14.2393,1119202
14.244,1153593
14.2488,1118619
14.2536,1003993
14.2583,988616
14.2631,954312
14.2679,903460
14.2726,870257
14.2774,836461
14.2821,773332
14.2869,779007
14.2917,778262
14.2964,751176
14.3012,774941
14.306,775485
14.3107,745894
14.3155,761282
14.3202,772502
14.325,791185
14.3298,785414
14.3345,810501
14.3393,826028
14.3441,801372
14.3488,827057
14.3536,805619
14.3583,838881
14.3631,858479
14.3679,892777
14.3726,986870
14.3774,1092856
14.3821,1276748
14.3869,1466716
14.3917,1676640
14.3964,1789323
14.4012,1696359
14.406,1576604
14.4107,1304242
14.4155,1145665
14.4202,960127
14.425,892097
14.4298,857590
14.4345,821599
14.4393,833361
14.4441,849014
14.4488,838274
14.4536,836840
14.4583,804705
14.4631,851508
14.4679,796663
14.4726,797817
14.4774,807055
14.4821,826499
14.4869,831675
14.4917,821004
14.4964,826734
14.5012,836446
14.506,866946
14.5107,834104
14.5155,839371
14.5202,814780
14.525,809415
14.5298,836225
14.5345,859135
14.5393,825627
14.5441,818089
14.5488,825403
14.5536,800013
14.5583,808174
14.5631,827383
14.5679,821864
14.5726,790524
14.5774,838079
14.5821,807165
14.5869,841009
14.5917,832603
14.5964,833805
14.6012,793187
14.606,823255
14.6107,816238
14.6155,826867
14.6202,814347
14.625,839169
14.6298,813632
14.6345,806392
14.6393,807366
14.6441,783939
14.6488,791455
14.6536,791914
14.6583,820190
14.6631,812078
14.6679,872298
14.6726,812595
14.6774,804412
14.6822,803277
14.6869,789669
14.6917,825363
14.6964,813087
14.7012,814414
14.706,787930
14.7107,789361
14.7155,805137
14.7202,811091
14.725,812124
14.7298,825415
14.7345,812091
14.7393,838307
14.7441,891903
14.7488,932213
14.7536,992339
14.7583,1052438
14.7631,1000240
14.7679,1036477
14.7726,951328
14.7774,878962
14.7822,881039
14.7869,862408
14.7917,876876
14.7964,799677
14.8012,807507
14.806,783375
14.8107,818342
14.8155,796738
14.8202,809273
14.825,854314
14.8298,884130
14.8345,886479
14.8393,903342
14.8441,878259
14.8488,823019
14.8536,833835
14.8583,834604
14.8631,809500
14.8679,807735
14.8726,764299
14.8774,799786
14.8822,804879
14.8869,781439
14.8917,791153
14.8964,813594
14.9012,762860
14.906,772756
14.9107,778870
14.9155,789990
14.9202,859697
14.925,878247
14.9298,985597
14.9345,1114636
14.9393,1222120
14.9441,1243673
14.9488,1245838
14.9536,1131830
14.9583,1049884
14.9631,971240
14.9679,913375
14.9726,887187
14.9774,905868
14.9822,909978
14.9869,917661
14.9917,891497
14.9964,885206
15.0012,839356
15.006,864922
15.0107,837188
15.0155,864345
15.0203,855538
15.025,811907
15.0298,855755
15.0345,857286
15.0393,846353
15.0441,826728
15.0488,849145
15.0536,857538
15.0583,835392
15.0631,844986
15.0679,824818
15.0726,878759
15.0774,870760
15.0822,821928
15.0869,835480
15.0917,845456
15.0964,839193
15.1012,792442
15.106,836251
15.1107,828190
15.1155,828144
15.1203,818155
15.125,802199
15.1298,854458
15.1345,811114
15.1393,824857
15.1441,815601
15.1488,881009
15.1536,956327
15.1583,1012739
15.1631,1090420
15.1679,1124711
15.1726,1165422
15.1774,1109382
15.1822,1081706
15.1869,1033254
15.1917,1003110
15.1964,950575
15.2012,945202
15.206,909172
15.2107,931489
15.2155,918162
15.2203,861608
15.225,883165
15.2298,909794
15.2345,875842
15.2393,869351
15.2441,861354
15.2488,855983
15.2536,874366
15.2583,863396
15.2631,883654
15.2679,847321
15.2726,837913
15.2774,882178
15.2822,876100
15.2869,816477
15.2917,850029
15.2964,857768
15.3012,864533
15.306,902196
15.3107,967444
15.3155,1000539
15.3203,1057795
15.325,1120792
15.3298,1070838
15.3345,996879
15.3393,970607
15.3441,958102
15.3488,953265
15.3536,886341
15.3584,873596
15.3631,881725
15.3679,884082
15.3726,845608
15.3774,857607
15.3822,859217
15.3869,842939
15.3917,812222
15.3964,849265
15.4012,853368
15.406,826020
15.4107,873731
15.4155,834222
15.4203,873066
15.425,847532
15.4298,895495
15.4345,846724
15.4393,859304
15.4441,849321
15.4488,877604
15.4536,883517
15.4584,866517
15.4631,890738
15.4679,934821
15.4726,968643
15.4774,981928
15.4822,919282
15.4869,944115
15.4917,930430
15.4964,873623
15.5012,886544
15.506,874357
15.5107,911624
15.5155,935254
15.5203,890480
15.525,979509
15.5298,984112
15.5345,1025029
15.5393,1053034
15.5441,1055606
15.5488,956747
15.5536,988416
15.5584,1023037
15.5631,1009111
15.5679,1014393
15.5726,1010676
15.5774,980829
15.5822,995885
15.5869,897607
15.5917,934064
15.5964,890979
15.6012,860204
15.606,868313
15.6107,892412
15.6155,916072
15.6203,882872
15.625,903338
15.6298,863627
15.6345,894496
15.6393,931050
15.6441,918959
15.6488,937288
15.6536,910839
15.6584,920847
15.6631,945169
15.6679,970757
15.6726,1024158
15.6774,1034645
15.6822,1101040
15.6869,1162564
15.6917,1184607
15.6965,1168071
15.7012,1104447
15.706,1025407
15.7107,990813
15.7155,993771
15.7203,999828
15.725,1146619
15.7298,1562418
15.7345,2722623
15.7393,5181957
15.7441,9923537
15.7488,15955349
15.7536,18857734
15.7584,15844023
15.7631,11299341
15.7679,6486869
15.7726,3556141
15.7774,2110894
15.7822,1617364
15.7869,1398223
15.7917,1304511
15.7965,1276202
15.8012,1217031
15.806,1224392
15.8107,1174578
15.8155,1209168
15.8203,1129441
15.825,1155269
15.8298,1112441
15.8345,1155976
15.8393,1190062
15.8441,1228821
15.8488,1272578
15.8536,1298503
15.8584,1312620
15.8631,1260463
15.8679,1326560
15.8726,1259530
15.8774,1217649
15.8822,1208391
15.8869,1207790
15.8917,1160720
15.8965,1196458
15.9012,1158004
15.906,1154642
15.9107,1179759
15.9155,1144776
15.9203,1154705
15.925,1182151
15.9298,1122447
15.9345,1174230
15.9393,1162667
15.9441,1154982
15.9488,1182676
15.9536,1145041
15.9584,1212418
15.9631,1190012
15.9679,1185770
15.9726,1157225
15.9774,1191762
15.9822,1215516
15.9869,1266209
15.9917,1220079
15.9965,1225836
16.0012,1200167
16.006,1184146
16.0107,1234288
16.0155,1299541
16.0203,1407766
16.025,1537572
16.0298,1582845
16.0345,1533420
16.0393,1449487
16.0441,1273114
16.0488,1264017
16.0536,1252798
16.0584,1221443
16.0631,1226553
16.0679,1188139
16.0726,1185504
16.0774,1270034
16.0822,1220653
16.0869,1177439
16.0917,1264392
16.0965,1237812
16.1012,1283090
16.106,1271928
16.1107,1301689
16.1155,1260846
16.1202,1238304
16.125,1259570
16.1298,1284566
16.1346,1305491
16.1393,1287731
16.1441,1290669
16.1488,1269769
16.1536,1292213
16.1583,1282598
16.1631,1316149
16.1679,1254808
16.1726,1272411
16.1774,1299541
16.1822,1324341
16.1869,1296011
16.1917,1320502
16.1964,1372226
16.2012,1327791
16.206,1375598
16.2107,1394913
16.2155,1389259
16.2203,1426313
16.225,1393767
16.2298,1377206
16.2345,1385938
16.2393,1351704
16.2441,1394291
16.2488,1395958
16.2536,1385726
16.2584,1404771
16.2631,1406238
16.2679,1404501
16.2726,1391030
16.2774,1453769
16.2822,1439657
16.2869,1392702
16.2917,1429425
16.2965,1444933
16.3012,1409258
16.306,1449160
16.3107,1451354
16.3155,1492251
16.3203,1501822
16.325,1466031
16.3298,1431183
16.3346,1527601
16.3393,1461548
16.3441,1511676
16.3488,1480576
16.3536,1550090
16.3584,1522981
16.3631,1570341
16.3679,1627092
16.3727,1732331
16.3774,1735706
16.3822,1681371
16.3869,1613422
16.3917,1595355
16.3965,1595369
16.4012,1708813
16.406,1732607
16.4107,2047541
16.4155,2097380
16.4203,2063517
16.425,1879847
16.4298,1717669
16.4346,1632315
16.4393,1710502
16.4441,1666388
16.4488,1704617
16.4536,1703744
16.4583,1726902
16.4631,1724529
16.4679,1808408
16.4727,1741304
16.4774,1759043
16.4822,1757295
16.4869,1755041
16.4917,1734379
16.4964,1675902
16.5012,1678713
16.506,1760575
16.5107,1757168
16.5155,1790942
16.5203,1808656
16.525,1821212
16.5298,1764832
16.5345,1903087
16.5393,1858343
16.5441,1881652
16.5488,1890157
16.5536,1888338
16.5584,1892903
16.5631,1978724
16.5679,1952138
16.5726,1867430
16.5774,1902041
16.5822,1982594
16.5869,1912105
16.5917,1884473
16.5965,1967184
16.6012,1936885
16.606,1948521
16.6107,2019857
16.6155,2006801
16.6203,2084623
16.625,2083757
16.6298,2019588
16.6346,2024967
16.6393,1957544
16.6441,1935114
16.6488,2013475
16.6536,1969720
16.6584,1968017
16.6631,2030347
16.6679,2029289
16.6727,2055103
16.6774,2091950
16.6822,2044226
16.6869,2078811
16.6917,2009256
16.6964,2042355
16.7012,2045315
16.706,1988738
16.7107,2010958
16.7155,1996527
16.7203,2050425
16.725,2069343
16.7298,1986553
16.7345,2122903
16.7393,2112626
16.7441,2098614
16.7488,2125552
16.7536,2129328
16.7584,2135237
16.7631,2104214
16.7679,2108456
16.7726,2097923
16.7774,2153222
16.7822,2143544
16.7869,2126766
16.7917,2147985
16.7965,2133128
16.8012,2200830
16.806,2236812
16.8107,2265521
16.8155,2227328
16.8203,2253793
16.825,2236366
16.8298,2397041
16.8346,2327105
16.8393,2289321
16.8441,2292456
16.8488,2332194
16.8536,2278004
16.8584,2291665
16.8631,2358481
16.8679,2318720
16.8727,2282845
16.8774,2309929
16.8822,2259133
16.8869,2161442
16.8917,2293802
16.8965,2206001
16.9012,2251767
16.906,2214905
16.9108,2246005
16.9155,2169884
16.9203,2270925
16.925,2275512
16.9298,2309958
16.9346,2372034
16.9393,2357425
16.9441,2359819
16.9488,2328541
16.9536,2301176
16.9584,2345135
16.9631,2391762
16.9679,2369386
16.9727,2324394
16.9774,2450109
16.9822,2514861
16.9869,2503868
16.9917,2488646
16.9965,2480356
17.0012,2438918
17.006,2455110
17.0108,2529337
17.0155,2575099
17.0203,2699171
17.025,2603840
17.0298,2482123
17.0345,2473487
17.0393,2488594
17.0441,2466556
17.0488,2424772
17.0536,2400337
17.0584,2380188
17.0631,2375917
17.0679,2429316
17.0726,2396077
17.0774,2378639
17.0822,2333490
17.0869,2342713
17.0917,2386489
17.0965,2374511
17.1012,2400777
17.106,2448167
17.1107,2635609
17.1155,2843077
17.1203,3170340
17.125,3655751
17.1298,4190421
17.1346,5406752
17.1393,7438503
17.1441,9153827
17.1488,8760373
17.1536,6675999
17.1584,4751145
17.1631,3509691
17.1679,3072388
17.1727,2845352
17.1774,2685810
17.1822,2687566
17.1869,2662728
17.1917,2664243
17.1965,2592632
17.2012,2654934
17.206,2565367
17.2108,2574642
17.2155,2555096
17.2203,2576719
17.225,2573848
17.2298,2563438
17.2346,2562722
17.2393,2542719
17.2441,2614342
17.2489,2516682
17.2536,2588165
17.2584,2590224
17.2631,2562059
17.2679,2523965
17.2726,2569512
17.2774,2538062
17.2822,2636484
17.2869,2617212
17.2917,2629511
17.2965,2750840
17.3012,3217229
17.306,4698575
17.3107,7656644
17.3155,10589860
17.3203,11110163
17.325,8801015
17.3298,5974363
17.3346,4274043
17.3393,3406350
17.3441,3129856
17.3488,2995406
17.3536,2835147
17.3584,2779217
17.3631,2746002
17.3679,2723094
17.3727,2675383
17.3774,2743319
17.3822,2579249
17.3869,2672619
17.3917,2632714
17.3965,2709642
17.4012,2662912
17.406,2661796
17.4108,2659889
17.4155,2733479
17.4203,2729176
17.425,2709497
17.4298,2693262
17.4346,2649982
17.4393,2665611
17.4441,2717260
17.4489,2698749
17.4536,2701574
17.4584,2709664
17.4631,2614125
17.4679,2637248
17.4727,2666212
17.4774,2713106
17.4822,2715160
17.487,2716538
17.4917,2665308
17.4965,2701494
17.5012,2603746
17.506,2691474
17.5108,2706556
17.5155,2660791
17.5203,2691923
17.525,2670407
17.5298,2659446
17.5346,2752984
17.5393,2719379
17.5441,2720802
17.5489,2702079
17.5536,2784272
17.5584,2651815
17.5631,2745588
17.5679,2712078
17.5726,2703331
17.5774,2721438
17.5822,2746451
17.587,2710517
17.5917,2863960
17.5965,2944800
17.6012,3017744
17.606,3120726
17.6107,3199117
17.6155,3095984
17.6203,2968779
17.625,2815587
17.6298,2746959
17.6346,2742788
17.6393,2840729
17.6441,3273014
17.6488,4921244
17.6536,10301763
17.6584,21436578
17.6631,33073006
17.6679,35046468
17.6727,25733578
17.6774,15335772
17.6822,8947177
17.687,5855031
17.6917,4624876
17.6965,3990976
17.7012,3694756
17.706,3455563
17.7108,3269300
17.7155,3254693
17.7203,3175435
17.725,3107793
17.7298,3046794
17.7346,2993804
17.7393,3013875
17.7441,2911907
17.7489,2971455
17.7536,2919356
17.7584,2988415
17.7631,2989397
17.7679,3051174
17.7727,3165440
17.7774,3461435
17.7822,3865000
17.787,4244407
17.7917,4314130
17.7965,4029077
17.8012,3556207
17.806,3242600
17.8108,3114746
17.8155,2985055
17.8203,2951090
17.8251,2943233
17.8298,2984435
17.8346,2972690
17.8393,2888492
17.8441,2853484
17.8489,2828923
17.8536,2866020
17.8584,2891140
17.8631,2920835
17.8679,2858728
17.8727,2849291
17.8774,2869334
17.8822,2847887
17.887,2899061
17.8917,2824171
17.8965,2852769
17.9012,2903592
17.906,2918597
17.9108,2957672
17.9155,3025806
17.9203,3084405
17.9251,3127162
17.9298,3143063
17.9346,3059537
17.9393,2972187
17.9441,2937472
17.9489,2875014
17.9536,2932122
17.9584,2851613
17.9631,2953050
17.9679,2794635
17.9727,2878023
17.9774,2877562
17.9822,2844678
17.987,2809773
17.9917,2824836
17.9965,2839770
18.0012,2817944
18.006,2875164
18.0108,2864989
18.0155,2871254
18.0203,2882389
18.0251,2955664
18.0298,2823160
18.0346,2842362
18.0393,2869501
18.0441,2869141
18.0489,2833972
18.0536,2848209
18.0584,2822091
18.0631,2854793
18.0679,2934478
18.0727,3265371
18.0774,4521660
18.0822,7701875
18.087,15379545
18.0917,30608508
18.0965,47632196
18.1012,53186240
18.106,44854024
18.1108,30632774
18.1155,18118058
18.1203,10757613
18.1251,7352456
18.1298,5872182
18.1346,4934933
18.1393,4494283
18.1441,4434540
18.1488,4596363
18.1536,5186817
18.1584,5476442
18.1632,5547194
18.1679,5260888
18.1727,4618055
18.1774,4219115
18.1822,3785166
18.187,3530221
18.1917,3410933
18.1965,3275636
18.2012,3229633
18.206,3235022
18.2108,3166269
18.2155,3177801
18.2203,3149108
18.2251,3093402
18.2298,3021752
18.2346,3107080
18.2393,2957811
18.2441,2993980
18.2489,2999434
18.2536,3043842
18.2584,2987173
18.2632,3115049
18.2679,3264365
18.2727,4114817
18.2774,6487753
18.2822,12244677
18.287,20707288
18.2917,32510794
18.2965,36450456
18.3012,31491760
18.306,22006628
18.3108,13970375
18.3155,9064018
18.3203,6569731
18.3251,5342174
18.3298,4729285
18.3346,4198493
18.3393,4044736
18.3441,3819398
18.3489,3608253
18.3536,3439903
18.3584,3452376
18.3632,3324975
18.3679,3350638
18.3727,3291032
18.3774,3200714
18.3822,3137688
18.387,3210462
18.3917,3162861
18.3965,3116503
18.4012,3074774
18.406,3132864
18.4108,3007587
18.4155,3088830
18.4203,3103149
18.4251,3039619
18.4298,3024279
18.4346,3056500
18.4393,3061998
18.4441,2973547
18.4489,2983914
18.4536,2974067
18.4584,2997176
18.4632,2981401
18.4679,3018874
18.4727,2957816
18.4774,3015291
18.4822,3031167
18.487,3027435
18.4917,3009869
18.4965,3052798
18.5013,2946239
18.506,2919908
18.5108,2915419
18.5155,2889122
18.5203,2978485
18.5251,2963630
18.5298,2955159
18.5346,2925821
18.5393,2902367
18.5441,2976822
18.5489,2919528
18.5536,2959015
18.5584,2943416
18.5632,2964548
18.5679,2954365
18.5727,2979075
18.5774,2965899
18.5822,2922347
18.587,2932098
18.5917,2955778
18.5965,2855838
18.6013,2971956
18.606,2921366
18.6108,3025253
18.6155,3042740
18.6203,3141590
18.6251,3233567
18.6298,3353947
18.6346,3318219
18.6393,3341265
18.6441,3197142
18.6489,3144524
18.6536,3054436
18.6584,3040279
18.6632,3023233
18.6679,2984118
18.6727,3179698
18.6774,3447596
18.6822,4232297
18.687,6277003
18.6917,9872061
18.6965,15350402
18.7013,21134566
18.706,25217582
18.7108,23702726
18.7155,18617270
18.7203,12890394
18.7251,8743369
18.7298,6336412
18.7346,5092988
18.7393,4293113
18.7441,3953661
18.7489,3735181
18.7536,3476329
18.7584,3468903
18.7632,3321522
18.7679,3303724
18.7727,3181209
18.7774,3146703
18.7822,3175163
18.787,3169930
18.7917,3217411
18.7965,3049809
18.8013,3131161
18.806,3046345
18.8108,3055100
18.8155,3089042
18.8203,3041936
18.8251,3035717
18.8298,3141685
18.8346,3348690
18.8394,3616019
18.8441,3916725
18.8489,4356178
18.8536,4342506
18.8584,4255726
18.8632,3953583
18.8679,3554837
18.8727,3398657
18.8774,3263573
18.8822,3188285
18.887,3117685
18.8917,3058330
18.8965,3059294
18.9013,3082325
18.906,3040005
18.9108,3035082
18.9155,3012996
18.9203,3003608
18.9251,3054220
18.9298,3001148
18.9346,2973921
18.9394,2939555
18.9441,2926616
18.9489,3024638
18.9536,3026973
18.9584,2930650
18.9632,3013936
18.9679,2877602
18.9727,2941722
18.9774,2914981
18.9822,2954515
18.987,2967844
18.9917,3000214
18.9965,2893250
19.0013,3017317
19.006,2984415
19.0108,2934057
19.0155,3008449
19.0203,2982807
19.0251,2961994
19.0298,3062782
19.0346,3018597
19.0394,2929964
19.0441,2999417
19.0489,2917324
19.0536,2995114
19.0584,2947637
19.0632,2890054
19.0679,2917140
19.0727,3018555
19.0774,2957112
19.0822,2939691
19.087,3012990
19.0917,2942046
19.0965,2951594
19.1013,2980050
19.106,2967057
19.1108,2993309
19.1155,3000191
19.1203,2970423
19.1251,2958854
19.1298,2969170
19.1346,2981617
19.1394,2944150
19.1441,2907031
19.1489,2980830
19.1536,2999303
19.1584,2951597
19.1632,3000855
19.1679,2962946
19.1727,2910082
19.1775,2894713
19.1822,2997971
19.187,2973138
19.1917,2902907
19.1965,3037305
19.2013,3059345
19.206,3604953
19.2108,4183329
19.2155,5444748
19.2203,7031166
19.2251,9535653
19.2298,11894283
19.2346,12771217
19.2394,12058487
19.2441,10069908
19.2489,7956959
19.2536,6185674
19.2584,4969367
19.2632,4210047
19.2679,3786975
19.2727,3668850
19.2775,3433490
19.2822,3297202
19.287,3237535
19.2917,3234708
19.2965,3346619
19.3013,3452418
19.306,3513191
19.3108,3626714
19.3155,3660220
19.3203,3464336
19.3251,3362602
19.3298,3244032
19.3346,3227895
19.3394,3136930
19.3441,3112496
19.3489,3057196
19.3536,3068897
19.3584,2955974
19.3632,3079476
19.3679,3004797
19.3727,2991558
19.3775,2965064
19.3822,3021418
19.387,3040134
19.3917,2965202
19.3965,2985863
19.4013,2929408
19.406,2934990
19.4108,2986062
19.4155,2953907
19.4203,2955894
19.4251,3014593
19.4298,3016760
19.4346,2966238
19.4394,2968138
19.4441,3031656
19.4489,3175077
19.4536,3407623
19.4584,4146487
19.4632,5109851
19.4679,6605523
19.4727,8335114
19.4775,10115617
19.4822,10992668
19.487,10943721
19.4917,9793557
19.4965,8112215
19.5013,6518483
19.506,5279249
19.5108,4411019
19.5156,3851505
19.5203,3689040
19.5251,3437828
19.5298,3376850
19.5346,3223496
19.5394,3317910
19.5441,3095304
19.5489,3160445
19.5536,3092934
19.5584,3116811
19.5632,3067683
19.5679,3028921
19.5727,3074721
19.5775,3046534
19.5822,2990295
19.587,3024847
19.5917,3020641
19.5965,2954091
19.6013,3037442
19.606,3052615
19.6108,2958755
19.6156,2956488
19.6203,3027806
19.6251,2944132
19.6298,2997208
19.6346,2902709
19.6394,2957343
19.6441,2945670
19.6489,2958465
19.6536,3015409
19.6584,2972791
19.6632,2949348
19.6679,3019431
19.6727,2949586
19.6775,2982213
19.6822,2880059
19.687,3002075
19.6917,2941003
19.6965,2981398
19.7013,2957834
19.706,2971201
19.7108,2985652
19.7156,2967093
19.7203,2972624
19.7251,2888847
19.7298,2936117
19.7346,2970472
19.7394,2974963
19.7441,2930178
19.7489,2911004
19.7536,2883610
19.7584,2855153
19.7632,2884214
19.7679,2898775
19.7727,2952162
19.7775,2903825
19.7822,2885759
19.787,2933195
19.7917,2953905
19.7965,3024747
19.8013,2893655
19.806,2929142
19.8108,2923359
19.8156,2900077
19.8203,2913235
19.8251,2895557
19.8298,2877473
19.8346,2964222
19.8394,2879714
19.8441,2906820
19.8489,2848416
19.8537,2881535
19.8584,2959600
19.8632,2903742
19.8679,2933705
19.8727,2897586
19.8775,2843305
19.8822,2924062
19.887,2864668
19.8917,2946297
19.8965,2878436
19.9013,3058851
19.906,3041301
19.9108,2989125
19.9156,2959553
19.9203,2943432
19.9251,2935675
19.9298,3028982
19.9346,2998144
19.9394,2920661
19.9441,2969757
19.9489,2834367
19.9537,2990040
19.9584,2872040
19.9632,2906271
19.9679,2928711
19.9727,2939031
19.9775,2972322
19.9822,2976754
19.987,3033313
19.9917,3184368
19.9965,3179865
20.0013,3317660
20.006,3518867
20.0108,3553206
20.0156,3651494
20.0203,3616638
20.0251,3505863
20.0298,3418260
20.0346,3288462
20.0394,3192976
20.0441,2988944
20.0489,3047794
20.0537,3077746
20.0584,2969665
20.0632,2938566
20.0679,2916576
20.0727,2977615
20.0775,2978362
20.0822,2982082
20.087,2887870
20.0917,2969873
20.0965,2907032
20.1013,2966892
20.106,2908130
20.1108,2983048
20.1156,2959797
20.1203,3017060
20.1251,2949824
20.1298,2940476
20.1346,2923759
20.1394,2913224
20.1441,2972519
20.1489,2881689
20.1537,2894631
20.1584,2961312
20.1632,2907068
20.1679,2901712
20.1727,2918686
20.1775,2911378
20.1822,2949763
20.187,2926730
20.1918,2922518
20.1965,2977922
20.2013,2924800
20.206,3019450
20.2108,2974232
20.2156,2977113
20.2203,2981637
20.2251,2909471
20.2298,2974669
20.2346,2951669
20.2394,2883827
20.2441,2872806
20.2489,2945061
20.2537,2899265
20.2584,2890469
20.2632,2880180
20.2679,2868415
20.2727,2862162
20.2775,2918308
20.2822,2993395
20.287,2912550
20.2918,2925248
20.2965,2915765
20.3013,2972086
20.306,2883735
20.3108,2870408
20.3156,2889522
20.3203,2940095
20.3251,2885256
20.3298,2881486
20.3346,2850386
20.3394,2901938
20.3441,2890465
20.3489,2912033
20.3537,2852844
20.3584,2896359
20.3632,2940698
20.3679,2928644
20.3727,2925676
20.3775,2929965
20.3822,2871469
20.387,2964877
20.3918,2994860
20.3965,2919327
20.4013,2919658
20.406,2928369
20.4108,2920649
20.4156,2899877
20.4203,2892519
20.4251,2927997
20.4298,2868862
20.4346,3005100
20.4394,2917154
20.4441,2873553
20.4489,2928145
20.4537,2908605
20.4584,2896215
20.4632,2890578
20.4679,2875060
20.4727,2932922
20.4775,2866592
20.4822,2916432
20.487,2913333
20.4918,2900356
20.4965,2946849
20.5013,2930757
20.506,2904481
20.5108,2862188
20.5156,2876557
20.5203,2896017
20.5251,2921695
20.5299,2929662
20.5346,2876013
20.5394,2879792
20.5441,2857634
20.5489,2951460
20.5537,2885267
20.5584,2886022
20.5632,2904169
20.5679,2888735
20.5727,2905795
20.5775,2917506
20.5822,2915742
20.587,2928169
20.5918,2895038
20.5965,2895600
20.6013,2940757
20.606,2905837
20.6108,2909540
20.6156,2864931
20.6203,2968682
20.6251,2948383
20.6299,2854708
20.6346,2908806
20.6394,2848547
20.6441,2900353
20.6489,2890305
20.6537,2901127
20.6584,2854911
20.6632,2902885
20.6679,2914226
20.6727,2880717
20.6775,2865282
20.6822,2967047
20.687,2958741
20.6918,2930385
20.6965,2875999
20.7013,2999725
20.706,2991772
20.7108,2969788
20.7156,3052739
20.7203,2957661
20.7251,3004678
20.7299,3018878
20.7346,2993465
20.7394,2991896
20.7441,2913781
20.7489,2955046
20.7537,2874693
20.7584,2844233
20.7632,2888104
20.7679,2928527
20.7727,2883751
20.7775,2896713
20.7822,2947228
20.787,2944306
20.7918,2890952
20.7965,2835936
20.8013,2895809
20.806,2974714
20.8108,2825799
20.8156,2971201
20.8203,2825591
20.8251,2928139
20.8299,2953522
20.8346,2884273
20.8394,2922564
20.8441,2945924
20.8489,2918134
20.8537,2909538
20.8584,2912198
20.8632,2924429
20.868,2900858
20.8727,2876135
20.8775,2867889
20.8822,2822717
20.887,2840939
20.8918,2848204
20.8965,2874666
20.9013,2836328
20.906,2859774
20.9108,2876959
20.9156,2890273
20.9203,2867560
20.9251,2851109
20.9299,2924609
20.9346,2860991
20.9394,2843150
20.9441,2927628
20.9489,2878702
20.9537,2898819
20.9584,2866317
20.9632,2856017
20.968,2846142
20.9727,2865758
20.9775,2876135
20.9822,2899488
20.987,2867821
20.9918,2873560
20.9965,2855089
21.0013,2916373
21.006,2854577
21.0108,2895502
21.0156,2879033
21.0203,2915034
21.0251,2903697
21.0299,2945444
21.0346,3017243
21.0394,3054476
21.0441,2991072
21.0489,2970938
21.0537,3069665
21.0584,2996943
21.0632,3061974
21.068,3026875
21.0727,2985359
21.0775,2969080
21.0822,2912385
21.087,2837193
21.0918,2879616
21.0965,2914287
21.1013,2850195
21.106,2872052
21.1108,2903066
21.1156,2854499
21.1203,2935071
21.1251,2908830
21.1299,2966088
21.1346,2820354
21.1394,2864165
21.1441,2835707
21.1489,2830876
21.1537,2828934
21.1584,2847877
21.1632,2840528
21.168,2895347
21.1727,2870355
21.1775,2818386
21.1822,2921501
21.187,2849763
21.1918,2815033
21.1965,2861168
21.2013,2873943
21.2061,2852836
21.2108,2873920
21.2156,2857157
21.2203,2877692
21.2251,2831978
21.2299,2848197
21.2346,2905318
21.2394,2841662
21.2441,2837287
21.2489,2911648
21.2537,2837849
21.2584,2848091
21.2632,2873795
21.268,2830939
21.2727,2872733
21.2775,2842609
21.2822,2831136
21.287,2881768
21.2918,2867821
21.2965,2876749
21.3013,2882128
21.3061,2794563
21.3108,2797318
21.3156,2894227
21.3203,2882408
21.3251,2874694
21.3299,2804110
21.3346,2879144
21.3394,2890371
21.3441,2936933
21.3489,2875961
21.3537,2850409
21.3584,2939903
21.3632,2835213
21.368,2909120
21.3727,2794723
21.3775,2813151
21.3822,2846702
21.387,2864939
21.3918,2868145
21.3965,2852906
21.4013,2871166
21.4061,2842901
21.4108,2891852
21.4156,2825134
21.4203,2878035
21.4251,2827351
21.4299,2874854
21.4346,2904105
21.4394,2862169
21.4441,2878749
21.4489,2813937
21.4537,2909615
21.4584,2874901
21.4632,2877537
21.468,2872588
21.4727,2832827
21.4775,2880794
21.4822,2811212
21.487,2778458
21.4918,2839741
21.4965,2861945
