D:\DATA\HAMBERGER\NICK\20230701\20230701_5-26-23_NBenthi_16.D  1 Jul 23  11:18 pm
Start of data points
4.09158,2685082
4.09635,2737047
4.10112,2710786
4.10587,2725050
4.11063,2627278
4.1154,2750867
4.12015,2810190
4.12492,2959617
4.12968,3172590
4.13445,3248325
4.1392,2761997
4.14397,2735450
4.14873,2947818
4.15348,2695298
4.15825,2456661
4.16302,2348341
4.16778,2378294
4.17253,2302380
4.1773,2283530
4.18207,2270910
4.18682,2288846
4.19158,2435521
4.19635,2371358
4.20112,2239576
4.20587,2136270
4.21063,2217534
4.2154,2100177
4.22015,2111793
4.22492,2031323
4.22968,2082903
4.23445,2048923
4.2392,2105640
4.24397,2167335
4.24873,2125477
4.2535,2059732
4.25825,2089366
4.26302,2014947
4.26778,2117864
4.27253,2077331
4.2773,2037442
4.28207,2189660
4.28683,2516587
4.29158,2342961
4.29635,2022918
4.30112,1951321
4.30587,1877163
4.31063,1900906
4.3154,1930759
4.32017,1865835
4.32492,1940294
4.32968,2017157
4.33445,2158179
4.3392,1989810
4.34397,1858995
4.34873,1909236
4.3535,1909175
4.35825,1979401
4.36302,1975568
4.36778,2119993
4.37253,2096251
4.3773,2124129
4.38207,2026942
4.38683,2006752
4.39158,1917191
4.39635,1940330
4.40112,1928193
4.40587,1832056
4.41063,1873015
4.4154,1902393
4.42017,1933936
4.42492,1899303
4.42968,2108345
4.43445,2121366
4.43922,2056258
4.44397,1949342
4.44873,2064503
4.4535,1947047
4.45825,1887163
4.46302,1852362
4.46778,1783014
4.47255,1748178
4.4773,1706870
4.48207,1689004
4.48683,1734076
4.49158,1767861
4.49635,1712006
4.50112,1758486
4.50588,1733657
4.51063,1707313
4.5154,1769166
4.52017,1924250
4.52492,1981913
4.52968,1860584
4.53445,1705385
4.53922,1738303
4.54397,1853667
4.54873,1803797
4.5535,1819748
4.55825,1707452
4.56302,1752567
4.56778,1805258
4.57255,1869297
4.5773,2141861
4.58207,2402784
4.58683,2395488
4.5916,2206319
4.59635,1940891
4.60112,1763852
4.60588,1697691
4.61063,1660854
4.6154,1690435
4.62017,1732619
4.62493,1681301
4.62968,1620262
4.63445,1647971
4.63922,1629578
4.64397,1617447
4.64873,1605301
4.6535,1648487
4.65827,1578346
4.66302,1656301
4.66778,1677988
4.67255,1795489
4.6773,1783695
4.68207,1665989
4.68683,1613556
4.6916,1583052
4.69635,1601665
4.70112,1565324
4.70588,1594361
4.71063,1564210
4.7154,1529121
4.72017,1513572
4.72493,1583582
4.72968,1508833
4.73445,1605487
4.73922,1543038
4.74397,1493122
4.74873,1537261
4.7535,1545500
4.75827,1560292
4.76302,1569792
4.76778,1536507
4.77255,1522220
4.77732,1576224
4.78207,1601754
4.78683,1554105
4.7916,1535487
4.79635,1500694
4.80112,1513404
4.80588,1518008
4.81065,1441062
4.8154,1490903
4.82017,1542383
4.82493,1487457
4.82968,1467650
4.83445,1481067
4.83922,1492803
4.84398,1488727
4.84873,1557166
4.8535,1514884
4.85827,1522720
4.86302,1511793
4.86778,1562975
4.87255,1524671
4.87732,1564889
4.88207,1645213
4.88683,1561438
4.8916,1528379
4.89635,1501369
4.90112,1535997
4.90588,1504389
4.91065,1524843
4.9154,1547980
4.92017,1523526
4.92493,1510971
4.92968,1542417
4.93445,1517436
4.93922,1550169
4.94398,1503508
4.94873,1511713
4.9535,1490995
4.95827,1492701
4.96303,1489321
4.96778,1446280
4.97255,1533127
4.97732,1476320
4.98207,1436676
4.98683,1435395
4.9916,1457611
4.99637,1448030
5.00112,1456815
5.00588,1418218
5.01065,1451832
5.0154,1384580
5.02017,1400836
5.02493,1403781
5.0297,1401844
5.03445,1484709
5.03922,1381593
5.04398,1380023
5.04873,1419088
5.0535,1396012
5.05827,1362371
5.06303,1404510
5.06778,1409473
5.07255,1395150
5.07732,1416450
5.08207,1336973
5.08683,1369724
5.0916,1357448
5.09637,1363763
5.10112,1376831
5.10588,1333087
5.11065,1409342
5.11542,1346044
5.12017,1369671
5.12493,1364392
5.1297,1423795
5.13445,1435928
5.13922,1458566
5.14398,1485073
5.14875,1515369
5.1535,1512276
5.15827,1545023
5.16303,1508203
5.16778,1511461
5.17255,1529731
5.17732,1497598
5.18208,1521474
5.18683,1489655
5.1916,1463375
5.19637,1525574
5.20112,1490655
5.20588,1503334
5.21065,1500620
5.21542,1503506
5.22017,1515673
5.22493,1489323
5.2297,1530299
5.23445,1574651
5.23922,1539977
5.24398,1552191
5.24875,1512224
5.2535,1467108
5.25827,1472053
5.26303,1503740
5.26778,1672972
5.27255,1931931
5.27732,1977671
5.28208,1736936
5.28683,1628033
5.2916,1561886
5.29637,1504192
5.30113,1541337
5.30588,1499972
5.31065,1462282
5.31542,1479275
5.32017,1512394
5.32493,1429772
5.3297,1471400
5.33447,1448744
5.33922,1464528
5.34398,1482490
5.34875,1486865
5.3535,1527439
5.35827,1466974
5.36303,1473357
5.3678,1504825
5.37255,1453182
5.37732,1442953
5.38208,1413701
5.38683,1431739
5.3916,1413490
5.39637,1452122
5.40113,1435382
5.40588,1394523
5.41065,1439236
5.41542,1441294
5.42017,1454510
5.42493,1442775
5.4297,1447014
5.43447,1476139
5.43922,1507374
5.44398,1473269
5.44875,1508343
5.45352,1520510
5.45827,1432360
5.46303,1471221
5.4678,1422546
5.47255,1473325
5.47732,1419702
5.48208,1451814
5.48685,1382286
5.4916,1458459
5.49637,1461782
5.50113,1424287
5.50588,1412317
5.51065,1438933
5.51542,1400334
5.52018,1430128
5.52493,1408606
5.5297,1425572
5.53447,1420148
5.53922,1380736
5.54398,1393844
5.54875,1395799
5.55352,1359700
5.55827,1367766
5.56303,1379862
5.5678,1318775
5.57255,1328382
5.57732,1338961
5.58208,1337946
5.58685,1349078
5.5916,1328428
5.59637,1363594
5.60113,1382442
5.60588,1402762
5.61065,1306775
5.61542,1325934
5.62018,1358173
5.62493,1336266
5.6297,1273153
5.63447,1346833
5.63923,1348814
5.64398,1306991
5.64875,1311629
5.65352,1350155
5.65827,1335602
5.66303,1347413
5.6678,1306687
5.67257,1325294
5.67732,1326967
5.68208,1304574
5.68685,1266530
5.6916,1301165
5.69637,1313834
5.70113,1284550
5.7059,1262016
5.71065,1308047
5.71542,1316568
5.72018,1330641
5.72493,1325789
5.7297,1324137
5.73447,1295943
5.73923,1342242
5.74398,1286520
5.74875,1309500
5.75352,1330686
5.75827,1341479
5.76303,1321695
5.7678,1364774
5.77257,1379597
5.77732,1360720
5.78208,1403104
5.78685,1379468
5.7916,1350585
5.79637,1357659
5.80113,1362830
5.8059,1361540
5.81065,1357795
5.81542,1354491
5.82018,1305424
5.82495,1328782
5.8297,1330784
5.83447,1413519
5.83923,1731694
5.84398,1955249
5.84875,2004178
5.85352,2004425
5.85828,1969323
5.86303,2027475
5.8678,1960955
5.87257,1952919
5.87732,1980039
5.88208,1886469
5.88685,1884921
5.89162,1909242
5.89637,1896309
5.90113,1827628
5.9059,1844013
5.91065,1818090
5.91542,1811238
5.92018,1818102
5.92495,1732634
5.9297,1715106
5.93447,1718959
5.93923,1689159
5.94398,1687400
5.94875,1641666
5.95352,1669390
5.95828,1575208
5.96303,1672932
5.9678,1785295
5.97257,1825031
5.97733,1795865
5.98208,1686887
5.98685,1600340
5.99162,1556485
5.99637,1547229
6.00113,1545112
6.0059,1522478
6.01067,1546129
6.01542,1469073
6.02018,1494959
6.02495,1513402
6.0297,1450840
6.03447,1408774
6.03923,1438939
6.044,1451406
6.04875,1467181
6.05352,1424381
6.05828,1464818
6.06303,1397042
6.0678,1426255
6.07257,1434721
6.07733,1464471
6.08208,1468571
6.08685,1420801
6.09162,1458138
6.09637,1456849
6.10113,1443680
6.1059,1476732
6.11067,1346358
6.11542,1357800
6.12018,1349268
6.12495,1336910
6.1297,1346213
6.13447,1316460
6.13923,1340192
6.144,1308779
6.14875,1360615
6.15352,1328403
6.15828,1254732
6.16305,1293271
6.1678,1329164
6.17257,1395410
6.17733,1448629
6.18208,1494109
6.18685,1430882
6.19162,1365083
6.19638,1352948
6.20113,1299239
6.2059,1326473
6.21067,1341399
6.21542,1321729
6.22018,1267471
6.22495,1359982
6.22972,1292820
6.23447,1294712
6.23923,1303515
6.244,1246148
6.24875,1304590
6.25352,1281661
6.25828,1285377
6.26305,1283193
6.2678,1280045
6.27257,1263934
6.27733,1283591
6.28208,1246292
6.28685,1150907
6.29162,1210338
6.29638,1197080
6.30113,1162605
6.3059,1243800
6.31067,1288952
6.31543,1327351
6.32018,1311095
6.32495,1246561
6.32972,1261758
6.33447,1255471
6.33923,1275700
6.344,1245777
6.34877,1259327
6.35352,1228317
6.35828,1221490
6.36305,1203972
6.3678,1229253
6.37257,1171569
6.37733,1162511
6.3821,1192850
6.38685,1170600
6.39162,1202928
6.39638,1179612
6.40113,1128277
6.4059,1209821
6.41067,1258864
6.41543,1293455
6.42018,1250435
6.42495,1251834
6.42972,1256763
6.43447,1198065
6.43923,1154600
6.444,1225552
6.44877,1147929
6.45352,1173432
6.45828,1194686
6.46305,1154129
6.4678,1172398
6.47257,1139651
6.47733,1148158
6.4821,1133810
6.48685,1185010
6.49162,1092036
6.49638,1125994
6.50115,1132992
6.5059,1108371
6.51067,1133678
6.51543,1091894
6.52018,1117299
6.52495,1098160
6.52972,1118082
6.53448,1121196
6.53923,1158336
6.544,1141889
6.54877,1099744
6.55352,1098585
6.55828,1093389
6.56305,1097787
6.56782,1087367
6.57257,1084434
6.57733,1082493
6.5821,1099856
6.58685,1091513
6.59162,1077202
6.59638,1099979
6.60115,1060928
6.6059,1129596
6.61067,1058085
6.61543,1058096
6.62018,1064949
6.62495,1056625
6.62972,1062807
6.63448,1064986
6.63923,1061804
6.644,1053019
6.64877,1087307
6.65352,1054569
6.65828,1075787
6.66305,1050835
6.66782,1036267
6.67257,1035683
6.67733,1060578
6.6821,1046353
6.68687,1027336
6.69162,1034066
6.69638,1043784
6.70115,1042744
6.7059,1010686
6.71067,1014220
6.71543,1026149
6.7202,1088410
6.72495,1019440
6.72972,990245
6.73448,1005963
6.73923,988079
6.744,1040385
6.74877,1023192
6.75353,1027276
6.75828,1027246
6.76305,1008812
6.76782,1033821
6.77257,1025425
6.77733,1002547
6.7821,1048469
6.78687,1068883
6.79162,1060523
6.79638,1078625
6.80115,1102811
6.8059,1066826
6.81067,1074326
6.81543,1049911
6.8202,1058282
6.82495,1072475
6.82972,1005075
6.83448,1079517
6.83925,1079877
6.844,1154515
6.84877,1125444
6.85353,1143177
6.85828,1038960
6.86305,1029091
6.86782,1040275
6.87258,1021611
6.87733,977428
6.8821,975297
6.88687,1030648
6.89162,1018833
6.89638,978214
6.90115,982867
6.90592,1041282
6.91067,1020182
6.91543,976169
6.9202,1007874
6.92495,979790
6.92972,997677
6.93448,1001542
6.93925,1003943
6.944,1008879
6.94877,986861
6.95353,960388
6.95828,967731
6.96305,945286
6.96782,973079
6.97258,948104
6.97733,991999
6.9821,981422
6.98687,959718
6.99162,946599
6.99638,1000751
7.00115,978014
7.00592,979993
7.01067,918279
7.01543,975309
7.0202,928606
7.02497,944832
7.02972,906199
7.03448,941417
7.03925,935474
7.044,898512
7.04877,946660
7.05353,939073
7.0583,941318
7.06305,912057
7.06782,943472
7.07258,931441
7.07733,912554
7.0821,923309
7.08687,915621
7.09163,876324
7.09638,890384
7.10115,866534
7.10592,883032
7.11067,923568
7.11543,865239
7.1202,897545
7.12497,878633
7.12972,884760
7.13448,894460
7.13925,799123
7.144,903326
7.14877,899472
7.15353,896086
7.1583,873198
7.16305,891389
7.16782,856209
7.17258,859434
7.17735,865950
7.1821,896267
7.18687,874268
7.19163,850791
7.19638,853738
7.20115,886853
7.20592,891780
7.21068,895394
7.21543,826784
7.2202,838733
7.22497,896845
7.22972,857005
7.23448,883316
7.23925,881060
7.24402,872726
7.24877,887705
7.25353,873844
7.2583,869976
7.26305,823691
7.26782,835710
7.27258,858347
7.27735,847133
7.2821,841216
7.28687,848493
7.29163,859037
7.29638,832497
7.30115,839954
7.30592,807040
7.31068,985839
7.31543,867136
7.3202,819395
7.32497,836513
7.32972,832889
7.33448,852847
7.33925,871645
7.34402,871788
7.34877,807342
7.35353,847327
7.3583,805985
7.36307,805249
7.36782,840800
7.37258,825377
7.37735,822099
7.3821,796074
7.38687,800128
7.39163,850761
7.3964,826021
7.40115,791314
7.40592,817252
7.41068,808953
7.41543,812639
7.4202,783876
7.42497,803180
7.42973,784996
7.43448,790489
7.43925,752048
7.44402,816314
7.44877,768323
7.45353,827982
7.4583,808742
7.46307,781562
7.46782,773178
7.47258,819439
7.47735,800628
7.4821,787109
7.48687,796886
7.49163,784873
7.4964,790427
7.50115,766128
7.50592,806892
7.51068,791955
7.51543,796006
7.5202,800268
7.52497,824132
7.52973,869561
7.53448,915549
7.53925,967090
7.54402,1013731
7.54878,1020080
7.55353,975896
7.5583,901742
7.56307,879977
7.56782,809071
7.57258,818901
7.57735,810403
7.58212,804205
7.58687,776652
7.59163,788080
7.5964,806729
7.60115,779976
7.60592,802543
7.61068,794376
7.61545,777418
7.6202,804117
7.62497,768808
7.62973,787317
7.63448,735413
7.63925,747811
7.64402,767098
7.64878,758026
7.65353,803852
7.6583,761287
7.66307,758035
7.66782,774454
7.67258,747728
7.67735,752623
7.68212,771793
7.68687,760239
7.69163,746279
7.6964,746624
7.70117,752251
7.70592,718100
7.71068,738968
7.71545,741441
7.7202,738748
7.72497,744666
7.72973,722572
7.7345,738819
7.73925,712982
7.74402,701423
7.74878,750242
7.75353,754442
7.7583,737327
7.76307,680669
7.76783,747125
7.77258,726541
7.77735,728472
7.78212,742903
7.78687,755240
7.79163,718885
7.7964,719679
7.80117,756953
7.80592,755771
7.81068,755788
7.81545,749491
7.8202,771508
7.82497,803612
7.82973,772368
7.8345,764141
7.83925,750778
7.84402,769214
7.84878,735572
7.85353,748189
7.8583,727200
7.86307,764931
7.86783,728031
7.87258,724536
7.87735,726801
7.88212,723554
7.88688,732322
7.89163,714153
7.8964,736404
7.90117,723680
7.90592,709655
7.91068,728542
7.91545,755740
7.92022,771245
7.92497,780010
7.92973,864818
7.9345,885360
7.93925,904037
7.94402,902528
7.94878,874286
7.95355,808798
7.9583,721033
7.96307,776004
7.96783,748531
7.97258,704673
7.97735,728876
7.98212,725305
7.98688,726499
7.99163,709150
7.9964,694908
8.00117,711025
8.00592,746907
8.01068,689833
8.01545,720225
8.02022,725908
8.02497,712922
8.02973,715061
8.0345,693700
8.03927,715799
8.04402,722774
8.04878,692903
8.05355,717224
8.0583,694752
8.06307,674929
8.06783,692765
8.0726,698908
8.07735,756956
8.08212,739436
8.08688,735285
8.09163,758417
8.0964,736027
8.10117,722068
8.10593,687026
8.11068,663866
8.11545,690768
8.12022,718185
8.12497,695319
8.12973,739461
8.1345,781581
8.13927,772757
8.14402,730760
8.14878,720014
8.15355,716142
8.1583,705650
8.16307,665210
8.16783,681088
8.1726,684334
8.17735,661656
8.18212,659672
8.18688,657073
8.19163,672352
8.1964,690253
8.20117,670768
8.20593,670509
8.21068,680541
8.21545,665627
8.22022,684303
8.22498,694926
8.22973,676603
8.2345,673523
8.23927,663139
8.24402,637699
8.24878,647704
8.25355,647396
8.25832,677633
8.26307,658589
8.26783,677352
8.2726,684218
8.27735,625969
8.28212,647270
8.28688,858853
8.29165,644895
8.2964,588809
8.30117,621727
8.30593,648967
8.31068,651280
8.31545,667461
8.32022,666551
8.32498,650555
8.32973,671933
8.3345,637949
8.33927,612080
8.34402,643585
8.34878,640831
8.35355,670484
8.35832,655645
8.36307,615733
8.36783,640491
8.3726,638132
8.37737,625070
8.38212,628515
8.38688,646392
8.39165,650106
8.3964,625047
8.40117,613596
8.40593,641164
8.4107,611272
8.41545,641552
8.42022,643589
8.42498,618381
8.42973,599005
8.4345,654259
8.43927,610694
8.44403,615301
8.44878,634017
8.45355,659821
8.45832,611298
8.46307,613901
8.46783,623489
8.4726,624002
8.47737,612496
8.48212,633306
8.48688,582552
8.49165,629840
8.4964,626530
8.50117,621008
8.50593,614701
8.5107,618141
8.51545,615484
8.52022,653788
8.52498,609416
8.52973,595623
8.5345,609817
8.53927,625448
8.54403,616254
8.54878,632496
8.55355,625507
8.55832,604662
8.56308,601588
8.56783,613323
8.5726,599693
8.57737,647699
8.58212,625970
8.58688,615848
8.59165,604027
8.59642,585047
8.60117,595232
8.60593,599589
8.6107,610217
8.61545,604828
8.62022,626804
8.62498,611621
8.62975,615662
8.6345,597297
8.63927,618488
8.64403,637031
8.64878,634302
8.65355,625072
8.65832,597925
8.66308,628367
8.66783,593225
8.6726,616528
8.67737,580052
8.68212,594401
8.68688,594330
8.69165,593186
8.69642,588377
8.70117,652809
8.70593,613894
8.7107,622892
8.71545,620838
8.72022,643142
8.72498,609692
8.72975,591248
8.7345,588906
8.73927,585283
8.74403,599859
8.7488,561058
8.75355,580443
8.75832,588984
8.76308,552298
8.76783,569098
8.7726,536560
8.77737,563183
8.78213,577852
8.78688,538307
8.79165,565297
8.79642,588755
8.80117,560763
8.80593,581581
8.8107,576372
8.81547,610055
8.82022,571278
8.82498,553371
8.82975,576391
8.8345,537552
8.83927,559051
8.84403,558708
8.8488,560626
8.85355,551474
8.85832,533559
8.86308,562265
8.86783,553454
8.8726,549085
8.87737,591109
8.88213,580608
8.88688,524143
8.89165,588552
8.89642,580584
8.90118,564075
8.90593,571489
8.9107,574493
8.91547,555165
8.92022,547736
8.92498,588778
8.92975,577407
8.93452,552688
8.93927,556770
8.94403,573162
8.9488,570158
8.95355,556540
8.95832,543819
8.96308,572233
8.96785,579442
8.9726,578925
8.97737,566372
8.98213,571198
8.98688,568088
8.99165,565862
8.99642,585713
9.00118,601631
9.00593,656796
9.0107,652395
9.01547,660171
9.02022,689270
9.02498,655153
9.02975,648423
9.03452,652668
9.03927,618256
9.04403,605028
9.0488,570604
9.05355,614602
9.05832,550606
9.06308,561586
9.06785,573358
9.0726,552311
9.07737,563841
9.08213,574555
9.0869,540412
9.09165,563514
9.09642,542141
9.10118,543825
9.10593,533656
9.1107,571919
9.11547,547538
9.12023,541806
9.12498,523113
9.12975,543372
9.13452,554952
9.13927,590641
9.14403,576058
9.1488,626869
9.15357,620874
9.15832,625002
9.16308,607328
9.16785,590271
9.1726,567199
9.17737,596172
9.18213,563697
9.1869,538829
9.19165,559089
9.19642,553189
9.20118,554235
9.20593,550326
9.2107,518732
9.21547,545656
9.22023,532541
9.22498,527523
9.22975,529570
9.23452,533377
9.23928,563104
9.24403,545418
9.2488,544022
9.25357,498956
9.25832,540632
9.26308,519589
9.26785,518698
9.27262,557684
9.27737,539065
9.28213,533644
9.2869,518748
9.29165,526710
9.29642,534662
9.30118,536267
9.30595,559142
9.3107,532443
9.31547,514737
9.32023,492506
9.32498,520767
9.32975,524838
9.33452,534351
9.33928,550296
9.34403,526073
9.3488,541461
9.35357,552129
9.35832,562674
9.36308,543816
9.36785,557748
9.37262,560538
9.37737,572395
9.38213,542271
9.3869,557618
9.39165,565376
9.39642,582573
9.40118,556939
9.40595,562890
9.4107,556448
9.41547,552935
9.42023,553650
9.425,556053
9.42975,518965
9.43452,515668
9.43928,533325
9.44403,538243
9.4488,517540
9.45357,528485
9.45833,509520
9.46308,486245
9.46785,503146
9.47262,508035
9.47737,536423
9.48213,515947
9.4869,536175
9.49167,513862
9.49642,528743
9.50118,500874
9.50595,495023
9.5107,516860
9.51547,531379
9.52023,506050
9.525,530513
9.52975,523163
9.53452,521504
9.53928,512184
9.54403,512553
9.5488,504126
9.55357,532792
9.55833,515836
9.56308,522581
9.56785,509819
9.57262,530875
9.57737,524536
9.58213,533192
9.5869,551304
9.59167,541251
9.59642,514775
9.60118,549565
9.60595,539054
9.61072,553371
9.61547,527352
9.62023,540465
9.625,551208
9.62975,537247
9.63452,561739
9.63928,550261
9.64405,540280
9.6488,550276
9.65357,579937
9.65833,547124
9.66308,520997
9.66785,508215
9.67262,512124
9.67738,511046
9.68213,518701
9.6869,497927
9.69167,512952
9.69642,502055
9.70118,464519
9.70595,506057
9.71072,528439
9.71547,491613
9.72023,487911
9.725,473137
9.72975,496230
9.73452,494186
9.73928,487967
9.74405,493155
9.7488,490012
9.75357,515646
9.75833,503340
9.7631,513383
9.76785,511774
9.77262,539971
9.77738,506897
9.78213,512451
9.7869,495993
9.79167,511271
9.79643,475663
9.80118,509221
9.80595,510371
9.81072,508802
9.81547,527700
9.82023,471427
9.825,504040
9.82977,505901
9.83452,517504
9.83928,496388
9.84405,502529
9.8488,494409
9.85357,490844
9.85833,509507
9.8631,496836
9.86785,516935
9.87262,485177
9.87738,484966
9.88213,517515
9.8869,505244
9.89167,499127
9.89643,477894
9.90118,511381
9.90595,483438
9.91072,506990
9.91547,483609
9.92023,495575
9.925,525247
9.92977,462999
9.93452,472395
9.93928,486395
9.94405,497705
9.94882,502762
9.95357,495147
9.95833,526867
9.9631,521692
9.96785,518750
9.97262,560489
9.97738,600649
9.98215,644671
9.9869,689028
9.99167,735086
9.99643,714754
10.0012,757439
10.006,702064
10.0107,675870
10.0155,630734
10.0202,591747
10.025,735316
10.0298,537517
10.0345,503706
10.0393,544869
10.0441,521950
10.0488,508119
10.0536,476495
10.0583,499512
10.0631,512828
10.0679,506059
10.0726,513106
10.0774,495754
10.0822,490130
10.0869,534881
10.0917,551989
10.0964,501530
10.1012,541274
10.106,541544
10.1107,554924
10.1155,555285
10.1202,555279
10.125,587061
10.1298,612135
10.1345,604976
10.1393,637776
10.1441,599326
10.1488,559422
10.1536,597458
10.1583,537006
10.1631,553537
10.1679,549864
10.1726,556097
10.1774,544799
10.1822,503269
10.1869,539562
10.1917,537336
10.1964,534658
10.2012,579361
10.206,591755
10.2107,596993
10.2155,584878
10.2202,604664
10.225,604603
10.2298,560417
10.2345,566187
10.2393,573531
10.2441,514783
10.2488,531802
10.2536,534416
10.2583,551991
10.2631,532086
10.2679,522310
10.2726,513915
10.2774,525646
10.2822,504893
10.2869,507896
10.2917,497325
10.2964,515269
10.3012,537138
10.306,527994
10.3107,494021
10.3155,512188
10.3203,487045
10.325,490320
10.3298,493027
10.3345,488867
10.3393,503872
10.3441,496158
10.3488,496351
10.3536,501047
10.3583,505018
10.3631,519394
10.3679,510838
10.3726,537576
10.3774,514440
10.3822,504724
10.3869,484773
10.3917,493478
10.3964,492144
10.4012,482348
10.406,496593
10.4107,505690
10.4155,511599
10.4203,507464
10.425,525028
10.4298,522880
10.4345,533903
10.4393,548118
10.4441,509599
10.4488,543573
10.4536,513197
10.4583,523978
10.4631,484059
10.4679,496309
10.4726,471405
10.4774,517262
10.4822,497152
10.4869,517890
10.4917,531473
10.4964,573062
10.5012,620061
10.506,661989
10.5107,714645
10.5155,695832
10.5203,669031
10.525,658326
10.5298,599328
10.5345,609401
10.5393,507622
10.5441,523081
10.5488,520212
10.5536,519195
10.5583,533361
10.5631,526457
10.5679,528725
10.5726,542176
10.5774,548297
10.5822,515495
10.5869,559252
10.5917,560678
10.5964,547795
10.6012,563332
10.606,542488
10.6107,537339
10.6155,523879
10.6203,499191
10.625,533468
10.6298,519869
10.6345,538604
10.6393,515738
10.6441,517434
10.6488,531791
10.6536,495369
10.6584,481693
10.6631,485521
10.6679,521654
10.6726,506222
10.6774,500576
10.6822,513114
10.6869,517505
10.6917,528214
10.6964,505003
10.7012,549144
10.706,590349
10.7107,599729
10.7155,599934
10.7203,566781
10.725,562202
10.7298,577177
10.7345,555108
10.7393,532415
10.7441,536792
10.7488,523825
10.7536,520723
10.7584,552400
10.7631,584160
10.7679,612338
10.7726,613942
10.7774,671859
10.7822,686261
10.7869,693315
10.7917,632821
10.7964,639766
10.8012,560086
10.806,570396
10.8107,542795
10.8155,538565
10.8203,562959
10.825,557660
10.8298,532454
10.8345,553510
10.8393,552976
10.8441,539032
10.8488,540750
10.8536,558281
10.8584,547040
10.8631,524546
10.8679,534156
10.8726,564772
10.8774,522580
10.8822,516380
10.8869,556614
10.8917,565499
10.8964,575985
10.9012,547844
10.906,551535
10.9107,550572
10.9155,555764
10.9203,530487
10.925,521852
10.9298,535832
10.9345,580337
10.9393,563215
10.9441,568425
10.9488,593257
10.9536,563088
10.9584,560056
10.9631,571278
10.9679,601804
10.9726,630521
10.9774,648759
10.9822,632891
10.9869,610333
10.9917,625778
10.9965,611517
11.0012,592455
11.006,568669
11.0107,564896
11.0155,566142
11.0203,665921
11.025,710683
11.0298,772503
11.0345,813450
11.0393,906300
11.0441,906449
11.0488,795795
11.0536,753083
11.0584,660179
11.0631,631488
11.0679,647754
11.0726,652245
11.0774,676186
11.0822,655708
11.0869,606696
11.0917,621379
11.0965,615922
11.1012,616599
11.106,605335
11.1107,615014
11.1155,645696
11.1203,632445
11.125,606565
11.1298,645389
11.1345,603487
11.1393,577714
11.1441,577133
11.1488,583027
11.1536,576503
11.1584,575357
11.1631,573912
11.1679,583430
11.1726,535059
11.1774,547536
11.1822,550739
11.1869,564841
11.1917,536696
11.1965,558035
11.2012,520534
11.206,534651
11.2107,552087
11.2155,514081
11.2203,548127
11.225,547925
11.2298,578542
11.2345,562184
11.2393,604861
11.2441,631993
11.2488,651987
11.2536,651445
11.2584,640285
11.2631,642320
11.2679,597776
11.2726,614300
11.2774,581060
11.2822,614503
11.2869,593779
11.2917,582664
11.2965,555570
11.3012,583279
11.306,578015
11.3107,553911
11.3155,575970
11.3203,559176
11.325,565702
11.3298,562708
11.3346,586808
11.3393,541053
11.3441,528367
11.3488,558590
11.3536,534479
11.3584,545923
11.3631,539769
11.3679,573610
11.3726,549990
11.3774,551237
11.3822,550225
11.3869,543890
11.3917,549121
11.3965,575285
11.4012,549843
11.406,572449
11.4107,538032
11.4155,562075
11.4203,575210
11.425,593214
11.4298,570465
11.4346,584604
11.4393,600303
11.4441,587077
11.4488,605166
11.4536,613633
11.4584,554027
11.4631,590573
11.4679,547874
11.4726,549656
11.4774,571478
11.4822,553297
11.4869,579796
11.4917,558277
11.4965,601870
11.5012,595759
11.506,579725
11.5107,579764
11.5155,591388
11.5203,566087
11.525,541630
11.5298,561617
11.5346,562091
11.5393,541811
11.5441,564019
11.5488,578271
11.5536,556083
11.5584,595755
11.5631,582275
11.5679,536871
11.5726,568331
11.5774,551450
11.5822,541993
11.5869,528958
11.5917,575331
11.5965,544720
11.6012,590167
11.606,609093
11.6107,607139
11.6155,597231
11.6203,589628
11.625,595487
11.6298,587049
11.6346,588343
11.6393,552639
11.6441,529062
11.6488,553775
11.6536,577776
11.6584,572169
11.6631,613321
11.6679,663492
11.6727,673615
11.6774,669338
11.6822,632837
11.6869,610775
11.6917,581818
11.6965,559352
11.7012,586831
11.706,633392
11.7107,685858
11.7155,708907
11.7203,651167
11.725,616717
11.7298,596260
11.7346,559988
11.7393,552683
11.7441,565084
11.7488,535034
11.7536,559751
11.7584,556580
11.7631,543383
11.7679,615802
11.7727,586591
11.7774,641073
11.7822,661948
11.7869,685696
11.7917,674391
11.7965,691360
11.8012,670977
11.806,633106
11.8107,646721
11.8155,662398
11.8203,603329
11.825,589605
11.8298,572851
11.8346,587638
11.8393,556150
11.8441,581531
11.8488,593705
11.8536,585562
11.8584,571538
11.8631,588189
11.8679,591405
11.8727,558849
11.8774,576644
11.8822,594793
11.8869,562169
11.8917,564805
11.8965,595117
11.9012,575173
11.906,584460
11.9107,553022
11.9155,551520
11.9203,580352
11.925,566951
11.9298,540685
11.9346,585117
11.9393,584729
11.9441,560827
11.9488,572889
11.9536,584160
11.9584,613738
11.9631,582236
11.9679,579981
11.9727,574374
11.9774,564964
11.9822,515209
11.9869,591686
11.9917,578204
11.9965,576653
12.0012,574948
12.006,579756
12.0108,583051
12.0155,619517
12.0203,630826
12.025,611772
12.0298,653449
12.0346,603244
12.0393,616354
12.0441,620649
12.0488,599826
12.0536,602641
12.0584,589356
12.0631,597142
12.0679,598421
12.0727,596706
12.0774,611681
12.0822,606184
12.0869,608257
12.0917,595667
12.0965,586815
12.1012,602785
12.106,660959
12.1108,704437
12.1155,803093
12.1203,871532
12.125,886801
12.1298,891997
12.1346,869007
12.1393,820751
12.1441,723727
12.1488,684850
12.1536,667852
12.1584,672873
12.1631,612838
12.1679,654007
12.1727,672553
12.1774,664885
12.1822,673606
12.1869,651331
12.1917,688412
12.1965,652065
12.2012,646868
12.206,623236
12.2108,627443
12.2155,605695
12.2203,628655
12.225,625454
12.2298,630911
12.2346,606907
12.2393,578109
12.2441,589915
12.2488,626299
12.2536,628007
12.2584,586001
12.2631,598602
12.2679,581637
12.2727,590780
12.2774,574801
12.2822,616053
12.2869,702156
12.2917,836400
12.2965,1522019
12.3012,3018580
12.306,5912223
12.3108,9783261
12.3155,13397832
12.3203,14804739
12.325,13686005
12.3298,9933372
12.3346,6283950
12.3393,3331497
12.3441,1843769
12.3489,1138422
12.3536,881377
12.3584,795061
12.3631,751586
12.3679,708124
12.3727,735657
12.3774,733041
12.3822,739645
12.3869,764982
12.3917,740652
12.3965,708170
12.4012,712518
12.406,695796
12.4108,694101
12.4155,704312
12.4203,678766
12.425,728149
12.4298,725939
12.4346,715739
12.4393,775911
12.4441,854037
12.4489,900039
12.4536,873275
12.4584,838530
12.4631,807402
12.4679,774404
12.4727,716708
12.4774,769363
12.4822,811661
12.4869,867960
12.4917,943777
12.4965,931052
12.5012,853528
12.506,809663
12.5108,777892
12.5155,753220
12.5203,724407
12.525,695489
12.5298,679336
12.5346,702358
12.5393,661874
12.5441,682049
12.5489,713947
12.5536,705960
12.5584,710860
12.5631,693525
12.5679,647898
12.5727,660649
12.5774,645740
12.5822,676170
12.5869,712053
12.5917,682270
12.5965,704785
12.6012,720973
12.606,729810
12.6108,744596
12.6155,797467
12.6203,846216
12.625,884136
12.6298,862425
12.6346,863179
12.6393,802286
12.6441,785800
12.6489,735127
12.6536,684161
12.6584,694787
12.6631,668703
12.6679,683083
12.6727,680255
12.6774,686438
12.6822,681250
12.687,679957
12.6917,683259
12.6965,715179
12.7012,691896
12.706,667402
12.7108,689300
12.7155,641009
12.7203,628391
12.725,667071
12.7298,675551
12.7346,647223
12.7393,664201
12.7441,649211
12.7489,619016
12.7536,669852
12.7584,646847
12.7631,623087
12.7679,661551
12.7727,681087
12.7774,693443
12.7822,689753
12.787,707942
12.7917,706275
12.7965,735133
12.8012,671575
12.806,668377
12.8108,671186
12.8155,681450
12.8203,670210
12.825,694821
12.8298,681341
12.8346,649782
12.8393,687365
12.8441,654948
12.8489,624022
12.8536,652738
12.8584,644760
12.8631,636335
12.8679,659018
12.8727,670693
12.8774,709152
12.8822,684047
12.887,645635
12.8917,649047
12.8965,649395
12.9012,655650
12.906,655270
12.9108,697810
12.9155,655195
12.9203,665000
12.925,675138
12.9298,666830
12.9346,650328
12.9393,637286
12.9441,647700
12.9489,679863
12.9536,665390
12.9584,648295
12.9631,628410
12.9679,614106
12.9727,659866
12.9774,659031
12.9822,638188
12.987,651965
12.9917,692233
12.9965,675177
13.0012,660155
13.006,639009
13.0108,691183
13.0155,665371
13.0203,652186
13.0251,703483
13.0298,674851
13.0346,697627
13.0393,681457
13.0441,660695
13.0489,714095
13.0536,688921
13.0584,776606
13.0631,894578
13.0679,1030207
13.0727,1146591
13.0774,1228361
13.0822,1108951
13.087,1033108
13.0917,905722
13.0965,814028
13.1012,738499
13.106,745001
13.1108,699861
13.1155,713903
13.1203,715144
13.1251,720126
13.1298,762168
13.1346,793333
13.1393,764866
13.1441,789260
13.1489,761401
13.1536,767896
13.1584,718799
13.1631,710996
13.1679,719264
13.1727,679098
13.1774,715335
13.1822,734040
13.187,694986
13.1917,723588
13.1965,773427
13.2012,852949
13.206,943988
13.2108,930856
13.2155,948592
13.2203,883697
13.2251,833336
13.2298,732071
13.2346,687951
13.2393,701560
13.2441,697549
13.2489,722642
13.2536,697983
13.2584,690171
13.2631,654986
13.2679,693558
13.2727,654898
13.2774,683673
13.2822,681004
13.287,702318
13.2917,670610
13.2965,685744
13.3012,667346
13.306,654632
13.3108,712243
13.3155,714324
13.3203,641768
13.3251,670640
13.3298,687837
13.3346,688030
13.3393,646949
13.3441,647762
13.3489,671521
13.3536,654126
13.3584,656354
13.3631,675540
13.3679,674160
13.3727,667145
13.3774,668642
13.3822,667700
13.387,674711
13.3917,672021
13.3965,669073
13.4012,689364
13.406,659932
13.4108,679339
13.4155,711020
13.4203,701501
13.4251,698648
13.4298,736331
13.4346,743406
13.4393,738121
13.4441,748660
13.4489,712100
13.4536,667388
13.4584,690163
13.4632,679123
13.4679,679987
13.4727,728436
13.4774,669766
13.4822,710775
13.487,737992
13.4917,753687
13.4965,764678
13.5012,818223
13.506,906105
13.5108,968240
13.5155,943241
13.5203,887213
13.5251,807153
13.5298,745003
13.5346,724215
13.5393,715164
13.5441,711393
13.5489,683662
13.5536,657470
13.5584,683484
13.5632,672624
13.5679,666814
13.5727,650878
13.5774,666495
13.5822,655280
13.587,704886
13.5917,714256
13.5965,694847
13.6012,690230
13.606,698083
13.6108,674224
13.6155,716539
13.6203,678585
13.6251,676912
13.6298,739733
13.6346,741571
13.6393,735719
13.6441,720879
13.6489,752996
13.6536,771729
13.6584,677818
13.6632,705490
13.6679,703900
13.6727,664895
13.6774,679455
13.6822,663121
13.687,695580
13.6917,641300
13.6965,675340
13.7012,656522
13.706,654082
13.7108,674211
13.7155,675409
13.7203,635029
13.7251,637016
13.7298,684572
13.7346,698161
13.7393,650827
13.7441,700620
13.7489,674054
13.7536,703546
13.7584,719543
13.7632,710904
13.7679,704744
13.7727,668686
13.7774,669781
13.7822,666300
13.787,691035
13.7917,656202
13.7965,661016
13.8013,675433
13.806,633622
13.8108,657625
13.8155,654417
13.8203,676253
13.8251,670214
13.8298,686787
13.8346,690379
13.8393,646151
13.8441,672004
13.8489,666244
13.8536,678166
13.8584,674631
13.8632,705320
13.8679,794707
13.8727,835903
13.8774,862738
13.8822,854868
13.887,842927
13.8917,814178
13.8965,788267
13.9013,775446
13.906,809558
13.9108,846608
13.9155,816436
13.9203,809321
13.9251,756982
13.9298,760049
13.9346,753234
13.9393,938361
13.9441,740631
13.9489,740241
13.9536,728509
13.9584,715530
13.9632,736208
13.9679,707028
13.9727,739882
13.9774,701341
13.9822,738888
13.987,735212
13.9917,775849
13.9965,810430
14.0013,734815
14.006,715869
14.0108,701787
14.0155,743252
14.0203,725400
14.0251,747758
14.0298,679780
14.0346,723348
14.0393,727732
14.0441,808052
14.0489,885311
14.0536,1020605
14.0584,1059994
14.0632,1054924
14.0679,998179
14.0727,911489
14.0774,826280
14.0822,788253
14.087,766425
14.0917,756887
14.0965,755721
14.1013,801792
14.106,731026
14.1108,757520
14.1155,733256
14.1203,751557
14.1251,741382
14.1298,745028
14.1346,766375
14.1394,801418
14.1441,819229
14.1489,887023
14.1536,953562
14.1584,1016183
14.1632,1006379
14.1679,1005956
14.1727,928426
14.1774,865635
14.1822,802291
14.187,741041
14.1917,760166
14.1965,814312
14.2013,848282
14.206,889391
14.2108,944465
14.2155,915859
14.2203,895369
14.2251,893420
14.2298,983277
14.2346,1124832
14.2394,1208026
14.2441,1258279
14.2489,1186291
14.2536,1068638
14.2584,884428
14.2632,904052
14.2679,861017
14.2727,844111
14.2774,798972
14.2822,773235
14.287,756412
14.2917,765038
14.2965,776902
14.3013,754747
14.306,775917
14.3108,770908
14.3155,786368
14.3203,790924
14.3251,806229
14.3298,820430
14.3346,811770
14.3394,807944
14.3441,789552
14.3489,787434
14.3536,781157
14.3584,788653
14.3632,776496
14.3679,811230
14.3727,861223
14.3774,912392
14.3822,995313
14.387,1067157
14.3917,1126466
14.3965,1172766
14.4013,1199878
14.406,1135495
14.4108,1070432
14.4155,1001717
14.4203,924514
14.4251,894928
14.4298,846545
14.4346,790476
14.4394,815973
14.4441,826223
14.4489,800488
14.4536,838269
14.4584,801730
14.4632,813397
14.4679,825944
14.4727,821751
14.4775,834102
14.4822,829436
14.487,811312
14.4917,799760
14.4965,885686
14.5013,845229
14.506,828584
14.5108,793787
14.5155,822694
14.5203,804647
14.5251,816061
14.5298,812480
14.5346,874769
14.5394,816859
14.5441,805354
14.5489,833032
14.5536,807595
14.5584,759395
14.5632,811244
14.5679,791448
14.5727,781322
14.5775,783621
14.5822,795085
14.587,813036
14.5917,808696
14.5965,803995
14.6013,830777
14.606,837236
14.6108,815966
14.6155,824945
14.6203,825814
14.6251,787343
14.6298,819816
14.6346,803089
14.6394,814458
14.6441,813010
14.6489,801530
14.6536,782262
14.6584,826332
14.6632,773972
14.6679,841274
14.6727,849014
14.6775,836884
14.6822,813431
14.687,830620
14.6917,845816
14.6965,808699
14.7013,770330
14.706,807457
14.7108,785963
14.7155,817062
14.7203,805362
14.7251,806097
14.7298,805867
14.7346,853096
14.7394,858876
14.7441,802558
14.7489,861102
14.7536,902362
14.7584,903879
14.7632,882397
14.7679,898093
14.7727,825013
14.7775,838202
14.7822,798661
14.787,808540
14.7917,814648
14.7965,813440
14.8013,774461
14.806,800440
14.8108,799709
14.8156,795877
14.8203,797809
14.8251,778052
14.8298,759155
14.8346,792084
14.8394,774023
14.8441,811257
14.8489,790881
14.8536,804383
14.8584,801989
14.8632,779882
14.8679,809295
14.8727,791763
14.8775,842064
14.8822,744493
14.887,781464
14.8917,770506
14.8965,782225
14.9013,765031
14.906,796339
14.9108,786715
14.9156,773710
14.9203,768604
14.9251,783423
14.9298,794700
14.9346,779918
14.9394,846933
14.9441,840966
14.9489,817509
14.9536,770635
14.9584,806201
14.9632,776876
14.9679,772833
14.9727,774097
14.9775,784950
14.9822,794232
14.987,806198
14.9917,812124
14.9965,779789
15.0013,776428
15.006,782032
15.0108,797402
15.0156,770827
15.0203,805215
15.0251,798675
15.0298,777678
15.0346,782736
15.0394,780219
15.0441,817317
15.0489,768881
15.0536,526189
15.0584,761284
15.0632,783414
15.0679,773879
15.0727,769698
15.0775,805521
15.0822,784008
15.087,797897
15.0917,819880
15.0965,790350
15.1013,808683
15.106,798605
15.1108,829185
15.1156,808183
15.1203,787064
15.1251,785738
15.1298,779018
15.1346,788039
15.1394,801317
15.1441,778461
15.1489,801259
15.1537,812377
15.1584,801893
15.1632,783545
15.1679,796030
15.1727,839079
15.1775,838714
15.1822,869644
15.187,786750
15.1917,875180
15.1965,847091
15.2013,848292
15.206,868560
15.2108,856305
15.2156,899507
15.2203,972290
15.2251,909359
15.2298,1028254
15.2346,1024236
15.2394,913116
15.2441,962567
15.2489,896805
15.2537,900590
15.2584,890432
15.2632,856207
15.2679,868358
15.2727,855642
15.2775,843727
15.2822,873644
15.287,850193
15.2917,841747
15.2965,803001
15.3013,829945
15.306,860641
15.3108,830094
15.3156,809658
15.3203,859078
15.3251,851333
15.3298,885066
15.3346,823050
15.3394,850842
15.3441,841033
15.3489,814713
15.3537,836672
15.3584,825530
15.3632,820356
15.3679,847307
15.3727,807024
15.3775,831812
15.3822,802048
15.387,844560
15.3917,816508
15.3965,807795
15.4013,838687
15.406,832184
15.4108,872266
15.4156,852622
15.4203,841364
15.4251,863352
15.4298,834894
15.4346,844827
15.4394,802579
15.4441,820296
15.4489,815301
15.4537,882533
15.4584,838208
15.4632,860928
15.4679,919230
15.4727,932165
15.4775,986394
15.4822,898606
15.487,917078
15.4918,837875
15.4965,854352
15.5013,849692
15.506,881063
15.5108,880381
15.5156,787330
15.5203,905358
15.5251,931299
15.5298,1021777
15.5346,1089962
15.5394,1144713
15.5441,1229559
15.5489,1210793
15.5537,1119443
15.5584,1043126
15.5632,977104
15.5679,907691
15.5727,882639
15.5775,901508
15.5822,858442
15.587,880659
15.5918,904294
15.5965,857824
15.6013,879163
15.606,852516
15.6108,850894
15.6156,882516
15.6203,898680
15.6251,924214
15.6298,916281
15.6346,930305
15.6394,925819
15.6441,912763
15.6489,859329
15.6537,878856
15.6584,892090
15.6632,921731
15.6679,925670
15.6727,1009168
15.6775,1034664
15.6822,1114715
15.687,1090082
15.6918,1163026
15.6965,1084433
15.7013,1018086
15.706,971106
15.7108,989513
15.7156,927710
15.7203,944026
15.7251,936065
15.7298,971994
15.7346,1003246
15.7394,1036817
15.7441,1097345
15.7489,1222426
15.7537,1360601
15.7584,1547851
15.7632,1516065
15.7679,1391750
15.7727,1263587
15.7775,1140295
15.7822,1101476
15.787,1008993
15.7918,1041038
15.7965,1088098
15.8013,1041996
15.806,1041367
15.8108,1039738
15.8156,1046104
15.8203,1016432
15.8251,986499
15.8299,1001802
15.8346,976213
15.8394,996412
15.8441,1067525
15.8489,1091080
15.8537,1079436
15.8584,1137197
15.8632,1153655
15.8679,1189009
15.8727,1148202
15.8775,1180201
15.8822,1128548
15.887,1124407
15.8918,1168242
15.8965,1103121
15.9013,1094045
15.906,1067378
15.9108,1092471
15.9156,1141561
15.9203,1065614
15.9251,1080622
15.9299,1057372
15.9346,1057435
15.9394,1091714
15.9441,1125761
15.9489,1091931
15.9537,1099538
15.9584,1125193
15.9632,1104925
15.9679,1109219
15.9727,1118201
15.9775,1117382
15.9822,1098708
15.987,1124012
15.9918,1128468
15.9965,1117634
16.0013,1088982
16.006,1129078
16.0108,1112075
16.0156,1218236
16.0203,1329171
16.0251,1469482
16.0299,1498300
16.0346,1432676
16.0394,1325950
16.0441,1256523
16.0489,1180867
16.0537,1194121
16.0584,1159110
16.0632,1157718
16.0679,1184631
16.0727,1167754
16.0775,1218066
16.0822,1164512
16.087,1163031
16.0918,1228560
16.0965,1202469
16.1013,1235334
16.106,1205213
16.1108,1194457
16.1156,1287600
16.1203,1299841
16.1251,1289696
16.1299,1253357
16.1346,1319622
16.1394,1246815
16.1441,1252094
16.1489,1310328
16.1536,1257598
16.1584,1311162
16.1632,1256968
16.168,1230612
16.1727,1257980
16.1775,1207117
16.1822,1303653
16.187,1337492
16.1917,1303291
16.1965,1308685
16.2013,1341471
16.206,1292733
16.2108,1325688
16.2156,1335965
16.2203,1344199
16.2251,1323556
16.2298,1301345
16.2346,1307116
16.2394,1318975
16.2441,1335592
16.2489,1340578
16.2537,1352147
16.2584,1363568
16.2632,1310189
16.2679,1356879
16.2727,1356226
16.2775,1401807
16.2822,1358743
16.287,1408645
16.2918,1369735
16.2965,1415487
16.3013,1324975
16.306,1404039
16.3108,1413383
16.3156,1466681
16.3203,1447066
16.3251,1373860
16.3299,1403684
16.3346,1429711
16.3394,1419689
16.3441,1454129
16.3489,1431790
16.3537,1439774
16.3584,1469902
16.3632,1557777
16.368,1665983
16.3727,1715089
16.3775,1673913
16.3822,1661518
16.387,1598138
16.3917,1630213
16.3965,1721823
16.4013,1741213
16.406,1873920
16.4108,2046182
16.4156,2085099
16.4203,1955174
16.4251,1774095
16.4298,1678746
16.4346,1680932
16.4394,1658543
16.4441,1691747
16.4489,1841017
16.4537,2036750
16.4584,2387618
16.4632,2476959
16.4679,2322078
16.4727,2082050
16.4775,1791279
16.4822,1803462
16.487,1762015
16.4918,1715533
16.4965,1741421
16.5013,1759082
16.506,1731196
16.5108,1750565
16.5156,1776951
16.5203,1725682
16.5251,1725562
16.5299,1771116
16.5346,1764537
16.5394,1802285
16.5441,1792210
16.5489,1804827
16.5537,1816719
16.5584,1799279
16.5632,1819453
16.568,1815095
16.5727,1832386
16.5775,1787264
16.5822,1832902
16.587,1794680
16.5918,1843634
16.5965,1820568
16.6013,1868498
16.6061,1879242
16.6108,1956041
16.6156,1997592
16.6203,2030155
16.6251,1923410
16.6299,2028523
16.6346,1942316
16.6394,1944773
16.6441,1959787
16.6489,1984854
16.6537,1898104
16.6584,1979842
16.6632,1969018
16.668,1973516
16.6727,1928507
16.6775,1893201
16.6822,1934919
16.687,1946291
16.6918,1921311
16.6965,1956033
16.7013,1911256
16.7061,1981618
16.7108,1880271
16.7156,1977899
16.7203,2002730
16.7251,1970983
16.7298,1947329
16.7346,1958636
16.7394,2054603
16.7441,1978512
16.7489,1992440
16.7537,2087541
16.7584,2035892
16.7632,2057096
16.7679,2024090
16.7727,1980714
16.7775,2032759
16.7822,1998289
16.787,2040281
16.7918,2074428
16.7965,2092875
16.8013,2134009
16.806,2172038
16.8108,2200661
16.8156,2154352
16.8203,2015963
16.8251,2092005
16.8299,2158697
16.8346,2170513
16.8394,2142637
16.8441,2187051
16.8489,2182639
16.8537,2264781
16.8584,2199689
16.8632,2319203
16.868,2290302
16.8727,2250127
16.8775,2226727
16.8822,2100352
16.887,2210814
16.8918,2188481
16.8965,2173697
16.9013,2211509
16.9061,2196375
16.9108,2209073
16.9156,2200538
16.9203,2263283
16.9251,2276347
16.9298,2297351
16.9346,2250611
16.9394,2234396
16.9442,2355333
16.9489,2339983
16.9537,2285175
16.9584,2293856
16.9632,2293297
16.9679,2324698
16.9727,2330824
16.9775,2347921
16.9822,2485580
16.987,2512446
16.9918,2418448
16.9965,2395357
17.0013,2306455
17.006,2434876
17.0108,2621866
17.0156,2782892
17.0203,2748431
17.0251,2598369
17.0299,2483764
17.0346,2435611
17.0394,2385852
17.0441,2429991
17.0489,2357561
17.0537,2346404
17.0584,2364792
17.0632,2361106
17.068,2404461
17.0727,2407636
17.0775,2450216
17.0822,2376840
17.087,2406598
17.0918,2375661
17.0965,2428446
17.1013,2406955
17.1061,2427800
17.1108,2373128
17.1156,2453158
17.1203,2469807
17.1251,2658774
17.1299,3213323
17.1346,4718889
17.1394,7125654
17.1442,8849080
17.1489,8354637
17.1537,6277449
17.1584,4427998
17.1632,3357492
17.168,2960585
17.1727,2694802
17.1775,2610711
17.1823,2658767
17.187,2658674
17.1918,2619415
17.1965,2613426
17.2013,2670029
17.2061,2521308
17.2108,2505303
17.2156,2600140
17.2203,2501863
17.2251,2569448
17.2299,2569747
17.2346,2604039
17.2394,2537886
17.2442,2556826
17.2489,2598285
17.2537,2615904
17.2584,2542936
17.2632,2527782
17.2679,2587805
17.2727,2559729
17.2775,2569225
17.2823,2580473
17.287,2605115
17.2918,2596461
17.2965,2719389
17.3013,3410009
17.3061,5159222
17.3108,8198211
17.3156,10291413
17.3203,10472804
17.3251,8308162
17.3299,5674975
17.3346,4078952
17.3394,3251627
17.3441,3046332
17.3489,2944489
17.3537,2766097
17.3584,2684274
17.3632,2716394
17.368,2712302
17.3727,2653665
17.3775,2732099
17.3822,2628523
17.387,2693118
17.3918,2650269
17.3965,2666337
17.4013,2636903
17.4061,2661539
17.4108,2643855
17.4156,2690983
17.4203,2739502
17.4251,2635808
17.4299,2686007
17.4346,2707941
17.4394,2674866
17.4442,2657146
17.4489,2741294
17.4537,2647476
17.4584,2637929
17.4632,2683470
17.468,2763840
17.4727,2716925
17.4775,2765731
17.4823,2698440
17.487,2653517
17.4918,2674914
17.4965,2734755
17.5013,2777806
17.5061,2669564
17.5108,2678128
17.5156,2768661
17.5204,2709642
17.5251,2820472
17.5299,2772146
17.5346,2710932
17.5394,2691754
17.5442,2728268
17.5489,2688467
17.5537,2738018
17.5584,2756121
17.5632,2748994
17.568,2771251
17.5727,2732296
17.5775,2786784
17.5823,2787257
17.587,2837656
17.5918,2778578
17.5965,2951276
17.6013,3135592
17.6061,3265664
17.6108,3217684
17.6156,3091824
17.6204,2974875
17.6251,2870430
17.6299,2814415
17.6346,2737842
17.6394,2978104
17.6442,3375740
17.6489,5437218
17.6537,11058994
17.6584,22156986
17.6632,31564158
17.668,30986860
17.6727,22384284
17.6775,13855581
17.6823,8124263
17.687,5479701
17.6918,4278971
17.6965,3723323
17.7013,3484512
17.7061,3328968
17.7108,3236843
17.7156,3125884
17.7204,3038795
17.7251,3018973
17.7299,3030817
17.7346,3008226
17.7394,3043219
17.7442,2978021
17.7489,3083926
17.7537,2913438
17.7584,2925185
17.7632,3004001
17.768,3065357
17.7727,3236878
17.7775,3579121
17.7823,4146221
17.787,4580424
17.7918,4600292
17.7965,4164709
17.8013,3533963
17.8061,3256834
17.8108,3088821
17.8156,2980200
17.8204,2917620
17.8251,2887418
17.8299,2942527
17.8346,2915245
17.8394,2848039
17.8442,2851596
17.8489,2845479
17.8537,2825459
17.8585,2893922
17.8632,2819162
17.868,2870895
17.8727,2805827
17.8775,2877995
17.8822,2847261
17.887,2930838
17.8918,2924911
17.8965,2925977
17.9013,3054753
17.9061,3046491
17.9108,3171271
17.9156,3355343
17.9203,3542213
17.9251,3421144
17.9299,3282044
17.9346,3130284
17.9394,3017459
17.9442,2929059
17.9489,2931973
17.9537,3086907
17.9584,3046844
17.9632,2927185
17.968,2990357
17.9727,2858682
17.9775,2914298
17.9823,2882001
17.987,2929462
17.9918,2931249
17.9965,2877660
18.0013,2926873
18.0061,2896746
18.0108,2918947
18.0156,2862808
18.0204,2872470
18.0251,2878852
18.0299,2903707
18.0346,2839733
18.0394,2868605
18.0442,2934776
18.0489,2850738
18.0537,2845837
18.0585,2907891
18.0632,2952322
18.068,3053800
18.0727,3284742
18.0775,4493778
18.0823,8717753
18.087,19293450
18.0918,37247868
18.0965,58164428
18.1013,66811216
18.1061,57257668
18.1108,36777324
18.1156,21054256
18.1204,12486867
18.1251,8230643
18.1299,6354210
18.1346,5236845
18.1394,4861985
18.1442,4751744
18.1489,5110427
18.1537,5592935
18.1585,6248298
18.1632,6410540
18.168,5976679
18.1727,5138204
18.1775,4417057
18.1823,4006155
18.187,3731771
18.1918,3494678
18.1966,3389783
18.2013,3357339
18.2061,3255475
18.2108,3240232
18.2156,3212107
18.2204,3180582
18.2251,3205222
18.2299,3145165
18.2346,3064658
18.2394,2992076
18.2442,2982662
18.2489,3096676
18.2537,3027241
18.2585,3139136
18.2632,3224399
18.268,3438111
18.2727,4787945
18.2775,7771898
18.2823,14346778
18.287,25244762
18.2918,35849920
18.2966,40707176
18.3013,35584288
18.3061,25854674
18.3108,16096950
18.3156,10108687
18.3204,7116204
18.3251,5595272
18.3299,4751428
18.3346,4393611
18.3394,4151226
18.3442,3856046
18.3489,3849564
18.3537,3546147
18.3585,3539941
18.3632,3463580
18.368,3352567
18.3727,3332188
18.3775,3353219
18.3823,3210932
18.387,3145006
18.3918,3213942
18.3966,3204755
18.4013,3143969
18.4061,3103220
18.4108,3143906
18.4156,3103320
18.4203,3039412
18.4251,2988923
18.4299,3121812
18.4346,3069417
18.4394,3029684
18.4442,3042648
18.4489,3073370
18.4537,3065093
18.4584,2943579
18.4632,2992681
18.468,3087285
18.4727,2934159
18.4775,2970972
18.4823,2942616
18.487,3002515
18.4918,2995511
18.4965,2999699
18.5013,3023133
18.5061,2990129
18.5108,2897520
18.5156,2998024
18.5204,2921781
18.5251,2930524
18.5299,2974366
18.5346,2940531
18.5394,2931227
18.5442,3027102
18.5489,2915968
18.5537,2992700
18.5585,3023035
18.5632,2946499
18.568,2974368
18.5727,2946731
18.5775,2994147
18.5823,2947594
18.587,2885487
18.5918,2906716
18.5966,2923239
18.6013,2960631
18.6061,2934828
18.6108,3032087
18.6156,3128122
18.6204,3267890
18.6251,3327339
18.6299,3513449
18.6347,3610754
18.6394,3594122
18.6442,3493209
18.6489,3245835
18.6537,3145187
18.6585,2971173
18.6632,3110788
18.668,3064888
18.6727,3126691
18.6775,3374141
18.6823,4368408
18.687,6637680
18.6918,10929998
18.6966,17576146
18.7013,23549836
18.7061,26205306
18.7108,24207460
18.7156,18702470
18.7204,13172892
18.7251,8888665
18.7299,6356057
18.7347,5023961
18.7394,4381150
18.7442,3935681
18.7489,3638603
18.7537,3560547
18.7585,3454840
18.7632,3330738
18.768,3385531
18.7727,3228490
18.7775,3196605
18.7823,3193239
18.787,3162979
18.7918,3156895
18.7966,3122114
18.8013,3022898
18.8061,3055601
18.8108,3070644
18.8156,3078770
18.8204,3082829
18.8251,3120860
18.8299,3211441
18.8347,3496265
18.8394,3934600
18.8442,4256944
18.8489,4724966
18.8537,4680457
18.8585,4522017
18.8632,4123574
18.868,3731631
18.8727,3555152
18.8775,3335971
18.8823,3266525
18.887,3138255
18.8918,3167733
18.8966,3079178
18.9013,3003194
18.9061,3078564
18.9108,3027213
18.9156,3042056
18.9204,2995177
18.9251,3000183
18.9299,3056932
18.9347,2987123
18.9394,3042481
18.9442,2991046
18.9489,2998935
18.9537,3024396
18.9584,3033818
18.9632,3002446
18.968,3021995
18.9728,3031746
18.9775,2946315
18.9823,2960052
18.987,2980811
18.9918,3038020
18.9965,2949170
19.0013,2998601
19.0061,2961052
19.0108,2991416
19.0156,2907791
19.0204,3006573
19.0251,2945472
19.0299,2968873
19.0346,2952460
19.0394,2981674
19.0442,3025618
19.0489,2972191
19.0537,3035296
19.0585,2906012
19.0632,2935934
19.068,3014799
19.0727,2974482
19.0775,2838644
19.0823,2954694
19.087,2954749
19.0918,3044666
19.0966,2921016
19.1013,2989211
19.1061,2980915
19.1108,2936134
19.1156,2962836
19.1204,2898715
19.1251,2996894
19.1299,2960297
19.1347,2943922
19.1394,2910103
19.1442,2880724
19.1489,2938720
19.1537,2893377
19.1585,2916269
19.1632,2970799
19.168,2918351
19.1728,2903949
19.1775,2876203
19.1823,2998253
19.187,2901993
19.1918,3047596
19.1966,3020725
19.2013,3243988
19.2061,3633534
19.2108,4523749
19.2156,6184364
19.2204,8853857
19.2251,12086352
19.2299,14552544
19.2347,15378483
19.2394,14490097
19.2442,12190052
19.2489,9334366
19.2537,6988217
19.2585,5336405
19.2632,4457506
19.268,3914802
19.2728,3661775
19.2775,3469206
19.2823,3357858
19.287,3326245
19.2918,3351360
19.2966,3361511
19.3013,3519825
19.3061,3726144
19.3109,3804798
19.3156,3849330
19.3204,3691832
19.3251,3651118
19.3299,3453642
19.3347,3331799
19.3394,3146924
19.3442,3145654
19.3489,3090403
19.3537,3026497
19.3585,3025914
19.3632,2972349
19.368,3044507
19.3728,3007747
19.3775,3018505
19.3823,3008294
19.387,2937051
19.3918,2977348
19.3966,2948091
19.4013,3059328
19.4061,2932371
19.4109,2948109
19.4156,2934142
19.4204,2932884
19.4251,2988511
19.4299,2952832
19.4347,3036487
19.4394,2999504
19.4442,3034606
19.4489,3154264
19.4537,3561539
19.4585,4345955
19.4632,5806804
19.468,7920609
19.4728,10570144
19.4775,12768027
19.4823,14418289
19.487,14047041
19.4918,11983716
19.4966,9505104
19.5013,7309152
19.5061,5651081
19.5109,4700368
19.5156,4222147
19.5204,3811268
19.5251,3526237
19.5299,3408794
19.5346,3325124
19.5394,3280210
19.5442,3138897
19.5489,3156501
19.5537,3097376
19.5585,3131631
19.5632,3056201
19.568,3029170
19.5727,3002419
19.5775,3034785
19.5823,3035085
19.587,3026620
19.5918,3030142
19.5966,2986844
19.6013,3071860
19.6061,2987543
19.6108,2985046
19.6156,3008644
19.6204,3030339
19.6251,2979648
19.6299,2958843
19.6347,2982760
19.6394,2996797
19.6442,2972783
19.6489,3036271
19.6537,2949743
19.6585,2971097
19.6632,3052812
19.668,2919264
19.6728,2969378
19.6775,2941951
19.6823,3015144
19.687,2937705
19.6918,2899843
19.6966,2933593
19.7013,2941090
19.7061,2912828
19.7109,2958154
19.7156,2914820
19.7204,2937563
19.7251,2871092
19.7299,2998097
19.7347,2934711
19.7394,2958642
19.7442,2944251
19.749,2952861
19.7537,2952048
19.7585,2920341
19.7632,2932806
19.768,2932964
19.7728,2964561
19.7775,2974641
19.7823,2924586
19.787,2969842
19.7918,2914788
19.7966,2957273
19.8013,2949795
19.8061,2869742
19.8109,2979945
19.8156,2897064
19.8204,2911280
19.8251,2892060
19.8299,2922866
19.8347,2923455
19.8394,2902487
19.8442,2885925
19.849,2968613
19.8537,2915627
19.8585,2871981
19.8632,2922293
19.868,2966375
19.8728,3011599
19.8775,2890862
19.8823,2950520
19.887,2929233
19.8918,2976686
19.8966,2928364
19.9013,2902976
19.9061,2984020
19.9109,2998486
19.9156,2977219
19.9204,3019979
19.9251,2998844
19.9299,2968400
19.9347,2944353
19.9394,2972910
19.9442,2895162
19.949,2834893
19.9537,2896425
19.9585,2855253
19.9632,2966351
19.968,2959564
19.9728,2889442
19.9775,2924499
19.9823,2926671
19.9871,3123080
19.9918,3151338
19.9966,3305836
20.0013,3461149
20.0061,3548462
20.0109,3658121
20.0156,3670035
20.0204,3660159
20.0251,3603418
20.0299,3422828
20.0347,3318291
20.0394,3135852
20.0442,3041945
20.049,2987334
20.0537,2913688
20.0585,2966783
20.0632,2944081
20.068,3052332
20.0727,2967576
20.0775,2919646
20.0823,2913292
20.0871,2891139
20.0918,2848963
20.0966,2888979
20.1013,2935819
20.1061,2862579
20.1108,2836204
20.1156,2915769
20.1204,2941167
20.1251,2844863
20.1299,2976297
20.1347,3006607
20.1394,2909679
20.1442,2968318
20.1489,2965566
20.1537,2859483
20.1585,2904515
20.1632,2890399
20.168,2975096
20.1728,2892167
20.1775,2899822
20.1823,2965350
20.187,2952542
20.1918,3010154
20.1966,3036661
20.2013,3057051
20.2061,3018074
20.2109,3030681
20.2156,3042401
20.2204,2996664
20.2251,2883303
20.2299,2907880
20.2347,2908168
20.2394,2934558
20.2442,2893340
20.249,2904415
20.2537,2921714
20.2585,2917238
20.2632,2956970
20.268,2860730
20.2728,2858650
20.2775,2908268
20.2823,2896210
20.2871,2834288
20.2918,2864308
20.2966,2844628
20.3013,2895990
20.3061,2895490
20.3109,2935721
20.3156,2922302
20.3204,2937829
20.3252,2916138
20.3299,2880105
20.3347,2905978
20.3394,2877553
20.3442,2921522
20.349,2857096
20.3537,2931315
20.3585,2877738
20.3632,2879638
20.368,2934818
20.3728,2849581
20.3775,2945447
20.3823,2911402
20.3871,2923368
20.3918,2906162
20.3966,2931777
20.4013,2878003
20.4061,2854495
20.4109,2926778
20.4156,2943412
20.4204,2932498
20.4252,2903567
20.4299,2936401
20.4347,2842167
20.4394,2877779
20.4442,2880334
20.449,2865566
20.4537,2831760
20.4585,2866429
20.4632,2953210
20.468,2902690
20.4728,2946983
20.4775,2909828
20.4823,2871943
20.4871,2815357
20.4918,2882679
20.4966,2885387
20.5013,2840483
20.5061,2911512
20.5109,2806433
20.5156,2917678
20.5204,2944509
20.5252,2933398
20.5299,2841541
20.5347,2932562
20.5394,2931678
20.5442,2863675
20.549,2818809
20.5537,2927927
20.5585,2865066
20.5632,2853406
20.568,2818502
20.5728,2877484
20.5775,2847804
20.5823,2871972
20.5871,2890090
20.5918,2889748
20.5966,2838637
20.6013,2805064
20.6061,2830775
20.6109,2916574
20.6156,2884997
20.6204,2871666
20.6252,2819231
20.6299,2841016
20.6347,2883581
20.6394,2805587
20.6442,2896812
20.6489,2802756
20.6537,2831032
20.6585,2906686
20.6633,2771730
20.668,2982896
20.6728,2938558
20.6775,2967688
20.6823,2841105
20.687,2907578
20.6918,2983350
20.6966,3044963
20.7013,2947977
20.7061,2978671
20.7109,2989899
20.7156,3093347
20.7204,3020158
20.7251,3034154
20.7299,3041899
20.7347,2932605
20.7394,2955683
20.7442,2998299
20.749,2908295
20.7537,2910645
20.7585,2837089
20.7632,2913614
20.768,2903421
20.7728,2876975
20.7775,2862674
20.7823,2893978
20.7871,2883623
20.7918,2842571
20.7966,2910190
20.8013,2901677
20.8061,2900852
20.8109,2916794
20.8156,2835969
20.8204,2935744
20.8252,2959468
20.8299,2868440
20.8347,2864633
20.8394,2864797
20.8442,2898630
20.849,2850330
20.8537,2857480
20.8585,2900590
20.8633,2892191
20.868,2802997
20.8728,2825191
20.8775,2894291
20.8823,2957323
20.8871,2890859
20.8918,2896768
20.8966,2835570
20.9013,2744954
20.9061,2857946
20.9109,2887797
20.9156,2776193
20.9204,2841934
20.9252,2781847
20.9299,2868197
20.9347,2900372
20.9394,2795990
20.9442,2866538
20.949,2848407
20.9537,2840918
20.9585,2776956
20.9633,2840815
20.968,2819308
20.9728,2795325
20.9775,2774993
20.9823,2794223
20.9871,2888056
20.9918,2900518
20.9966,2879385
21.0014,2852588
21.0061,2860112
21.0109,2887409
21.0156,2865879
21.0204,2984145
21.0252,2988123
21.0299,2969247
21.0347,3014819
21.0394,3029624
21.0442,3092705
21.049,3061629
21.0537,3024201
21.0585,3032409
21.0633,3111153
21.068,3014244
21.0728,2877358
21.0775,2972304
21.0823,2842668
21.0871,2876535
21.0918,2854039
21.0966,2923074
21.1014,2911990
21.1061,2899285
21.1109,2850094
21.1156,2875520
21.1204,2881254
21.1252,2865061
21.1299,2826500
21.1347,2851422
21.1394,2882909
21.1442,2889591
21.149,2886894
21.1537,2836284
21.1585,2886104
21.1633,2862860
21.168,2856522
21.1728,2869290
21.1775,2880279
21.1823,2877349
21.1871,2887904
21.1918,2933106
21.1966,2808154
21.2014,2880427
21.2061,2896940
21.2109,2791719
21.2156,2931252
21.2204,2812460
21.2251,2791704
21.2299,2823753
21.2347,2830750
21.2394,2811750
21.2442,2885954
21.249,2804847
21.2537,2854353
21.2585,2771793
21.2632,2789556
21.268,2918722
21.2728,2855973
21.2775,2819776
21.2823,2895902
21.2871,2798064
21.2918,2818278
21.2966,2912111
21.3013,2772724
21.3061,2849276
21.3109,2825368
21.3156,2856019
21.3204,2852062
21.3252,2815180
21.3299,2786149
21.3347,2800000
21.3394,2881138
21.3442,2919979
21.349,2869557
21.3537,2804229
21.3585,2847230
21.3633,2850562
21.368,2837503
21.3728,2858759
21.3775,2868317
21.3823,2837301
21.3871,2829342
21.3918,2881852
21.3966,2845357
21.4014,2825095
21.4061,2805169
21.4109,2834809
21.4156,2865343
21.4204,2855537
21.4252,2873767
21.4299,2801515
21.4347,2878057
21.4395,2858970
21.4442,2857193
21.449,2752406
21.4537,2866842
21.4585,2776495
21.4633,2834913
21.468,2896117
21.4728,2838747
21.4775,2841911
21.4823,2871079
21.4871,2801733
21.4918,2828394
21.4966,2828275
