D:\DATA\HAMBERGER\NICK\20230701\20230701_5-26-23_NBenthi_22.D  2 Jul 23   2:14 am
Start of data points
4.0916,2517315
4.09637,2451949
4.10113,2408975
4.10588,2471711
4.11065,2389876
4.11542,2412813
4.12017,2481824
4.12493,2519564
4.1297,2705159
4.13447,2577391
4.13922,2582433
4.14398,2477401
4.14875,2566649
4.1535,2489067
4.15827,2254813
4.16303,2156892
4.1678,2112479
4.17255,2151340
4.17732,2062618
4.18208,2105401
4.18685,2121586
4.1916,2192899
4.19637,2204736
4.20113,2069492
4.20588,1955373
4.21065,1986245
4.21542,1937884
4.22018,1846200
4.22493,1919250
4.2297,1823460
4.23447,1853665
4.23922,1908479
4.24398,1919821
4.24875,1811266
4.25352,1830111
4.25827,1840383
4.26303,1748337
4.2678,1833615
4.27255,1856856
4.27732,1865107
4.28208,2075501
4.28685,2219824
4.2916,2068054
4.29637,1804939
4.30113,1725532
4.30588,1655085
4.31065,1686778
4.31542,1718036
4.32018,1692036
4.32493,1669932
4.3297,1820685
4.33447,1925774
4.33922,1814288
4.34398,1706209
4.34875,1650734
4.35352,1767192
4.35827,1752276
4.36303,1784583
4.3678,1756720
4.37257,1872753
4.37732,1858610
4.38208,1821013
4.38685,1841215
4.3916,1754528
4.39637,1701730
4.40113,1709678
4.4059,1673423
4.41065,1651090
4.41542,1586964
4.42018,1670913
4.42493,1680189
4.4297,1703458
4.43447,1855793
4.43923,1756263
4.44398,1714644
4.44875,1789723
4.45352,1749860
4.45827,1643934
4.46303,1610992
4.4678,1610627
4.47257,1568364
4.47732,1540848
4.48208,1554971
4.48685,1621995
4.4916,1563036
4.49637,1618541
4.50113,1579434
4.5059,1583317
4.51065,1564091
4.51542,1615963
4.52018,1781131
4.52495,1828105
4.5297,1621639
4.53447,1537699
4.53923,1609343
4.54398,1596668
4.54875,1614144
4.55352,1653174
4.55828,1554277
4.56303,1493689
4.5678,1519027
4.57257,1563727
4.57732,1765564
4.58208,2047358
4.58685,2116905
4.59162,2110856
4.59637,1741954
4.60113,1627230
4.6059,1504709
4.61065,1525018
4.61542,1501888
4.62018,1466890
4.62495,1484598
4.6297,1448453
4.63447,1440620
4.63923,1424036
4.64398,1429370
4.64875,1460400
4.65352,1444467
4.65828,1458898
4.66303,1475661
4.6678,1452504
4.67257,1493013
4.67732,1473893
4.68208,1416970
4.68685,1414346
4.69162,1432234
4.69637,1406226
4.70113,1384012
4.7059,1384455
4.71067,1396289
4.71542,1405385
4.72018,1372017
4.72495,1373975
4.7297,1366817
4.73447,1322115
4.73923,1347677
4.744,1373035
4.74875,1326536
4.75352,1352536
4.75828,1409522
4.76303,1334699
4.7678,1360281
4.77257,1369625
4.77733,1348384
4.78208,1344039
4.78685,1344278
4.79162,1360757
4.79637,1317629
4.80113,1332008
4.8059,1346196
4.81067,1355374
4.81542,1332374
4.82018,1339642
4.82495,1321154
4.8297,1387861
4.83447,1364342
4.83923,1349821
4.844,1337624
4.84875,1343435
4.85352,1280300
4.85828,1309055
4.86305,1253346
4.8678,1318387
4.87257,1279574
4.87733,1313391
4.88208,1345339
4.88685,1318479
4.89162,1361247
4.89638,1366163
4.90113,1380133
4.9059,1377507
4.91067,1396950
4.91542,1418219
4.92018,1367419
4.92495,1334874
4.92972,1369196
4.93447,1453958
4.93923,1404723
4.944,1410560
4.94875,1439703
4.95352,1388176
4.95828,1370344
4.96305,1334023
4.9678,1335283
4.97257,1269325
4.97733,1288226
4.98208,1325751
4.98685,1310647
4.99162,1336203
4.99638,1346859
5.00113,1313764
5.0059,1307603
5.01067,1329636
5.01542,1327448
5.02018,1364604
5.02495,1312699
5.02972,1335607
5.03447,1274683
5.03923,1331912
5.044,1331808
5.04877,1272891
5.05352,1287436
5.05828,1312378
5.06305,1318587
5.0678,1302412
5.07257,1273798
5.07733,1277285
5.0821,1292620
5.08685,1248889
5.09162,1231940
5.09638,1283829
5.10113,1249700
5.1059,1256300
5.11067,1263198
5.11543,1234645
5.12018,1298137
5.12495,1238123
5.12972,1270496
5.13447,1271015
5.13923,1326494
5.144,1342193
5.14877,1392300
5.15352,1381342
5.15828,1410839
5.16305,1450926
5.1678,1420606
5.17257,1496383
5.17733,1365212
5.1821,1442798
5.18685,1427933
5.19162,1381988
5.19638,1404616
5.20113,1344259
5.2059,1415024
5.21067,1406654
5.21543,1440338
5.22018,1447106
5.22495,1490457
5.22972,1416864
5.23448,1490091
5.23923,1483455
5.244,1508287
5.24877,1430421
5.25352,1408366
5.25828,1416108
5.26305,1450880
5.26782,1478766
5.27257,1745373
5.27733,1893905
5.2821,1816734
5.28685,1640231
5.29162,1563948
5.29638,1477274
5.30115,1415283
5.3059,1401651
5.31067,1438638
5.31543,1375512
5.32018,1361319
5.32495,1360901
5.32972,1361971
5.33448,1407138
5.33923,1389546
5.344,1353179
5.34877,1389449
5.35352,1358353
5.35828,1403528
5.36305,1382074
5.36782,1381948
5.37257,1404227
5.37733,1362768
5.3821,1333450
5.38687,1368089
5.39162,1346130
5.39638,1379038
5.40115,1377166
5.4059,1348929
5.41067,1367540
5.41543,1356706
5.4202,1309325
5.42495,1336075
5.42972,1386411
5.43448,1414873
5.43923,1420767
5.444,1414331
5.44877,1356230
5.45353,1385265
5.45828,1332895
5.46305,1344090
5.46782,1430011
5.47257,1415242
5.47733,1352277
5.4821,1328522
5.48687,1393865
5.49162,1326551
5.49638,1328926
5.50115,1332055
5.5059,1326948
5.51067,1314480
5.51543,1346973
5.5202,1344201
5.52495,1352085
5.52972,1393159
5.53448,1340448
5.53923,1365776
5.544,1275734
5.54877,1320508
5.55353,1278690
5.55828,1292194
5.56305,1298511
5.56782,1280621
5.57258,1257624
5.57733,1311480
5.5821,1270438
5.58687,1271028
5.59162,1254602
5.59638,1259031
5.60115,1226480
5.60592,1272884
5.61067,1284401
5.61543,1252107
5.6202,1260370
5.62495,1229492
5.62972,1285877
5.63448,1284222
5.63925,1266824
5.644,1291423
5.64877,1312771
5.65353,1242482
5.65828,1277877
5.66305,1224943
5.66782,1248188
5.67258,1242767
5.67733,1192982
5.6821,1237840
5.68687,1242598
5.69162,1252310
5.69638,1223568
5.70115,1236822
5.70592,1238409
5.71067,1236338
5.71543,1196420
5.7202,1245078
5.72497,1259663
5.72972,1187995
5.73448,1191803
5.73925,1240616
5.744,1285146
5.74877,1227005
5.75353,1262077
5.7583,1219657
5.76305,1219903
5.76782,1265609
5.77258,1207755
5.77733,1214460
5.7821,1227058
5.78687,1234897
5.79163,1232432
5.79638,1215386
5.80115,1272790
5.80592,1234972
5.81067,1269960
5.81543,1328111
5.8202,1217789
5.82497,1271816
5.82972,1207791
5.83448,1337163
5.83925,1625919
5.844,1903678
5.84877,2019856
5.85353,2037903
5.8583,1997610
5.86305,1940921
5.86782,1978413
5.87258,1989407
5.87733,1890991
5.8821,1929621
5.88687,1841654
5.89163,1907651
5.89638,1873405
5.90115,1848690
5.90592,1807147
5.91068,1779086
5.91543,1749567
5.9202,1752130
5.92497,1763829
5.92972,1674559
5.93448,1684982
5.93925,1615240
5.94402,1607913
5.94877,1593225
5.95353,1520622
5.9583,1602760
5.96305,1742174
5.96782,1964430
5.97258,1933680
5.97735,1876126
5.9821,1746852
5.98687,1651757
5.99163,1611737
5.99638,1506544
6.00115,1481370
6.00592,1504339
6.01068,1452048
6.01543,1482645
6.0202,1455013
6.02497,1447961
6.02972,1457205
6.03448,1402908
6.03925,1418708
6.04402,1315527
6.04877,1383757
6.05353,1388098
6.0583,1356528
6.06305,1379731
6.06782,1385695
6.07258,1354024
6.07735,1374558
6.0821,1428367
6.08687,1452031
6.09163,1446452
6.0964,1487737
6.10115,1428362
6.10592,1442081
6.11068,1384098
6.11543,1342744
6.1202,1325912
6.12497,1290540
6.12973,1243064
6.13448,1239270
6.13925,1255086
6.14402,1239359
6.14877,1241273
6.15353,1253104
6.1583,1221317
6.16307,1251383
6.16782,1304854
6.17258,1289897
6.17735,1310422
6.1821,1392557
6.18687,1311977
6.19163,1349790
6.1964,1355384
6.20115,1283712
6.20592,1251468
6.21068,1244205
6.21543,1267659
6.2202,1272136
6.22497,1279145
6.22973,1334053
6.23448,1268228
6.23925,1209902
6.24402,1188853
6.24878,1214534
6.25353,1195706
6.2583,1205403
6.26307,1234776
6.26782,1208744
6.27258,1207047
6.27735,1178335
6.28212,1178449
6.28687,1187207
6.29163,1181067
6.2964,1178070
6.30115,1113242
6.30592,1164899
6.31068,1152893
6.31545,1106331
6.3202,1167436
6.32497,1110710
6.32973,1185329
6.33448,1184157
6.33925,1162640
6.34402,1168528
6.34878,1139624
6.35353,1130609
6.3583,1163906
6.36307,1118427
6.36782,1153417
6.37258,1118777
6.37735,1138348
6.38212,1157846
6.38687,1110151
6.39163,1128995
6.3964,1104489
6.40115,1119365
6.40592,1115585
6.41068,1152851
6.41545,1210530
6.4202,1195274
6.42497,1252476
6.42973,1266695
6.4345,1242222
6.43925,1208307
6.44402,1116821
6.44878,1150734
6.45353,1132868
6.4583,1083556
6.46307,1098538
6.46783,1072133
6.47258,1066238
6.47735,1117344
6.48212,1087081
6.48687,1143807
6.49163,1122285
6.4964,1095022
6.50117,1076275
6.50592,1039678
6.51068,1082906
6.51545,1086233
6.5202,1082941
6.52497,1030218
6.52973,1071035
6.5345,1052843
6.53925,1067085
6.54402,1081282
6.54878,1047957
6.55353,1028276
6.5583,1066549
6.56307,1034911
6.56783,1060114
6.57258,1009053
6.57735,1027577
6.58212,1064143
6.58688,1009328
6.59163,1042422
6.5964,1024182
6.60117,1037290
6.60592,1047242
6.61068,1044902
6.61545,1047092
6.62022,1023275
6.62497,1002729
6.62973,1011102
6.6345,959324
6.63925,1040851
6.64402,1003344
6.64878,1005202
6.65355,971304
6.6583,1032548
6.66307,1062488
6.66783,1003924
6.67258,1018037
6.67735,1012655
6.68212,1018497
6.68688,996791
6.69163,992562
6.6964,977401
6.70117,994583
6.70592,1008150
6.71068,977462
6.71545,998671
6.72022,971496
6.72497,967824
6.72973,987316
6.7345,961415
6.73925,972296
6.74402,955893
6.74878,982035
6.75355,955267
6.7583,966401
6.76307,957269
6.76783,905316
6.7726,964399
6.77735,952617
6.78212,954113
6.78688,975617
6.79163,977884
6.7964,954839
6.80117,1023769
6.80593,996062
6.81068,981888
6.81545,997863
6.82022,977140
6.82497,994977
6.82973,971069
6.8345,1052915
6.83927,1138787
6.84402,1169480
6.84878,1184211
6.85355,1181256
6.8583,1140268
6.86307,1084859
6.86783,995738
6.8726,992565
6.87735,997469
6.88212,977852
6.88688,931891
6.89163,941939
6.8964,948432
6.90117,961192
6.90593,931156
6.91068,916294
6.91545,943965
6.92022,971887
6.92497,935255
6.92973,920655
6.9345,950763
6.93927,974536
6.94402,937076
6.94878,968109
6.95355,984833
6.95832,975876
6.96307,987004
6.96783,965720
6.9726,966908
6.97735,953217
6.98212,968085
6.98688,912430
6.99165,912775
6.9964,940236
7.00117,967999
7.00593,923981
7.01068,909087
7.01545,935335
7.02022,904327
7.02498,958482
7.02973,934948
7.0345,906171
7.03927,927391
7.04402,889701
7.04878,899560
7.05355,902483
7.05832,903224
7.06307,866685
7.06783,904204
7.0726,889562
7.07735,851006
7.08212,872803
7.08688,875759
7.09165,899269
7.0964,864673
7.10117,852310
7.10593,886256
7.1107,859461
7.11545,853436
7.12022,866034
7.12498,825696
7.12973,875663
7.1345,871399
7.13927,855940
7.14403,842747
7.14878,882755
7.15355,871661
7.15832,879449
7.16307,827705
7.16783,829726
7.1726,834320
7.17737,807916
7.18212,814668
7.18688,831895
7.19165,849430
7.1964,849898
7.20117,835463
7.20593,792881
7.2107,855247
7.21545,855312
7.22022,842070
7.22498,863860
7.22973,812242
7.2345,831104
7.23927,838624
7.24403,829442
7.24878,841979
7.25355,836972
7.25832,805497
7.26307,847844
7.26783,784344
7.2726,813886
7.27737,794677
7.28212,769850
7.28688,805437
7.29165,798711
7.29642,820555
7.30117,806222
7.30593,810761
7.3107,840437
7.31545,813198
7.32022,798342
7.32498,818983
7.32975,826150
7.3345,800254
7.33927,825650
7.34403,822526
7.34878,823133
7.35355,803244
7.35832,805240
7.36308,781794
7.36783,799624
7.3726,807461
7.37737,774497
7.38212,813645
7.38688,766333
7.39165,779751
7.39642,803274
7.40117,752505
7.40593,742333
7.4107,777850
7.41545,800151
7.42022,768885
7.42498,780258
7.42975,770042
7.4345,771899
7.43927,805343
7.44403,744854
7.4488,762590
7.45355,800064
7.45832,768181
7.46308,752966
7.46783,744136
7.4726,798879
7.47737,765370
7.48213,800205
7.48688,752540
7.49165,775141
7.49642,765406
7.50117,796049
7.50593,776101
7.5107,756564
7.51547,788628
7.52022,785251
7.52498,807932
7.52975,820681
7.5345,836414
7.53927,887758
7.54403,973893
7.5488,966954
7.55355,922709
7.55832,897419
7.56308,900193
7.56783,825341
7.5726,804000
7.57737,763227
7.58213,758396
7.58688,741026
7.59165,762235
7.59642,771901
7.60117,713765
7.60593,794900
7.6107,762595
7.61547,793118
7.62022,765662
7.62498,753372
7.62975,739106
7.63452,735316
7.63927,765690
7.64403,745659
7.6488,743450
7.65355,700627
7.65832,738048
7.66308,749229
7.66785,726680
7.6726,723584
7.67737,729400
7.68213,731593
7.68688,773434
7.69165,779102
7.69642,765260
7.70118,728150
7.70593,712268
7.7107,705964
7.71547,730639
7.72022,734969
7.72498,728300
7.72975,751308
7.73452,676416
7.73927,732044
7.74403,722425
7.7488,728710
7.75355,703199
7.75832,707817
7.76308,700340
7.76785,704370
7.7726,740126
7.77737,731580
7.78213,709449
7.78688,695275
7.79165,712561
7.79642,695740
7.80118,704148
7.80593,689454
7.8107,728208
7.81547,724044
7.82023,716990
7.82498,724730
7.82975,737456
7.83452,752707
7.83927,713050
7.84403,719276
7.8488,737615
7.85357,707731
7.85832,713151
7.86308,742586
7.86785,713551
7.8726,738633
7.87737,695012
7.88213,717351
7.8869,710556
7.89165,719814
7.89642,716674
7.90118,711008
7.90593,720702
7.9107,726789
7.91547,687476
7.92023,727106
7.92498,741257
7.92975,839856
7.93452,835416
7.93927,919648
7.94403,861278
7.9488,819880
7.95357,781141
7.95832,764222
7.96308,690693
7.96785,730942
7.97262,712701
7.97737,703138
7.98213,705567
7.9869,715916
7.99165,699350
7.99642,695237
8.00118,676205
8.00595,685313
8.0107,678613
8.01547,677246
8.02023,682507
8.02498,711900
8.02975,701334
8.03452,654922
8.03928,699128
8.04403,706834
8.0488,670600
8.05357,671823
8.05832,691210
8.06308,677263
8.06785,731829
8.07262,737491
8.07737,768287
8.08213,776634
8.0869,809866
8.09165,758497
8.09642,734243
8.10118,735181
8.10595,690241
8.1107,675225
8.11547,679034
8.12023,708034
8.12498,682739
8.12975,733686
8.13452,694568
8.13928,722789
8.14403,649702
8.1488,677924
8.15357,669093
8.15833,659788
8.16308,684863
8.16785,688060
8.17262,646046
8.17737,662079
8.18213,654371
8.1869,664924
8.19167,648529
8.19642,639397
8.20118,638205
8.20595,608120
8.2107,639853
8.21547,659168
8.22023,680659
8.225,646449
8.22975,689659
8.23452,631223
8.23928,659002
8.24403,632039
8.2488,613269
8.25357,619743
8.25833,618650
8.26308,650986
8.26785,638064
8.27262,658552
8.27737,631349
8.28213,653068
8.2869,660683
8.29167,633532
8.29642,622270
8.30118,662843
8.30595,639092
8.31072,623088
8.31547,611457
8.32023,613282
8.325,598181
8.32975,663364
8.33452,595816
8.33928,622905
8.34405,621607
8.3488,596586
8.35357,626028
8.35833,644968
8.36308,646557
8.36785,620055
8.37262,606936
8.37738,607057
8.38213,621929
8.3869,626031
8.39167,627593
8.39642,594495
8.40118,622392
8.40595,596771
8.41072,605291
8.41547,624183
8.42023,628543
8.425,609750
8.42975,574971
8.43452,628895
8.43928,610847
8.44405,599521
8.4488,607900
8.45357,577885
8.45833,634215
8.46308,578745
8.46785,604951
8.47262,580789
8.47738,575752
8.48213,619629
8.4869,599601
8.49167,602647
8.49643,643918
8.50118,616552
8.50595,602532
8.51072,604486
8.51547,639568
8.52023,617641
8.525,594234
8.52977,600381
8.53452,606597
8.53928,591102
8.54405,609990
8.5488,628101
8.55357,614483
8.55833,576635
8.5631,575605
8.56785,568318
8.57262,620840
8.57738,593842
8.58213,589566
8.5869,605797
8.59167,590783
8.59643,588558
8.60118,579729
8.60595,595206
8.61072,596235
8.61547,600810
8.62023,587069
8.625,611942
8.62977,604488
8.63452,616568
8.63928,615287
8.64405,559662
8.64882,577162
8.65357,569072
8.65833,593762
8.6631,596526
8.66785,613652
8.67262,600254
8.67738,564786
8.68215,583082
8.6869,595446
8.69167,590300
8.69643,558938
8.70118,561585
8.70595,619293
8.71072,576491
8.71548,624503
8.72023,608066
8.725,576912
8.72977,571072
8.73452,549548
8.73928,577690
8.74405,579009
8.74882,560920
8.75357,562879
8.75833,572636
8.7631,581430
8.76785,589333
8.77262,580503
8.77738,552668
8.78215,573516
8.7869,562448
8.79167,588247
8.79643,584523
8.80118,572022
8.80595,556012
8.81072,580860
8.81548,583438
8.82023,545132
8.825,543874
8.82977,564602
8.83453,531232
8.83928,565284
8.84405,566607
8.84882,556618
8.85357,558298
8.85833,547010
8.8631,558271
8.86787,564656
8.87262,546212
8.87738,557606
8.88215,564632
8.8869,542893
8.89167,508041
8.89643,552748
8.9012,578398
8.90595,539533
8.91072,528364
8.91548,540872
8.92023,577173
8.925,589150
8.92977,556912
8.93453,562966
8.93928,552736
8.94405,566990
8.94882,583511
8.95357,579281
8.95833,560409
8.9631,571063
8.96787,526245
8.97262,564146
8.97738,559659
8.98215,559271
8.9869,560109
8.99167,594745
8.99643,554364
9.0012,566837
9.00595,585691
9.01072,617682
9.01548,622696
9.02025,632238
9.025,672590
9.02977,604678
9.03453,634403
9.03928,604037
9.04405,579511
9.04882,600091
9.05358,553171
9.05833,545307
9.0631,519645
9.06787,552676
9.07262,534395
9.07738,545904
9.08215,553065
9.08692,566943
9.09167,535179
9.09643,541148
9.1012,540288
9.10595,570140
9.11072,545714
9.11548,548321
9.12025,559230
9.125,610260
9.12977,594977
9.13453,630977
9.13928,694861
9.14405,690751
9.14882,714604
9.15358,706822
9.15833,706897
9.1631,684533
9.16787,649055
9.17263,639441
9.17738,608889
9.18215,602216
9.18692,598668
9.19167,578599
9.19643,579340
9.2012,568598
9.20597,515870
9.21072,541142
9.21548,526415
9.22025,522373
9.225,542867
9.22977,549902
9.23453,535717
9.2393,514632
9.24405,538773
9.24882,519573
9.25358,529836
9.25833,507646
9.2631,511244
9.26787,531295
9.27263,543848
9.27738,506952
9.28215,535667
9.28692,516290
9.29167,513878
9.29643,519023
9.3012,525364
9.30597,559065
9.31072,520827
9.31548,510301
9.32025,510979
9.325,492748
9.32977,514485
9.33453,659989
9.3393,527537
9.34405,530188
9.34882,547025
9.35358,513518
9.35835,528972
9.3631,537539
9.36787,538210
9.37263,551999
9.37738,508604
9.38215,529094
9.38692,552173
9.39168,549595
9.39643,548142
9.4012,560063
9.40597,541374
9.41072,570762
9.41548,538656
9.42025,517752
9.42502,525798
9.42977,534303
9.43453,495902
9.4393,527921
9.44405,504483
9.44882,488495
9.45358,515916
9.45835,509953
9.4631,497469
9.46787,530723
9.47263,521124
9.47738,522471
9.48215,521252
9.48692,508870
9.49168,498798
9.49643,498154
9.5012,488067
9.50597,506957
9.51073,504873
9.51548,494580
9.52025,485217
9.52502,534721
9.52977,507348
9.53453,492024
9.5393,533554
9.54407,519536
9.54882,518822
9.55358,485059
9.55835,506537
9.5631,497256
9.56787,505370
9.57263,492530
9.5774,502314
9.58215,485907
9.58692,490633
9.59168,524071
9.59643,484382
9.6012,498546
9.60597,541160
9.61073,533160
9.61548,539130
9.62025,524605
9.62502,534364
9.62977,539675
9.63453,541163
9.6393,520275
9.64407,518502
9.64882,562003
9.65358,536974
9.65835,524310
9.6631,537573
9.66787,574325
9.67263,509775
9.6774,530426
9.68215,533138
9.68692,503570
9.69168,485769
9.69645,501719
9.7012,480848
9.70597,523396
9.71073,478796
9.71548,496338
9.72025,495393
9.72502,500161
9.72978,492523
9.73453,498571
9.7393,513945
9.74407,512030
9.74882,484975
9.75358,483217
9.75835,489226
9.76312,485851
9.76787,475604
9.77263,481450
9.7774,485353
9.78215,496880
9.78692,487922
9.79168,489527
9.79645,499133
9.8012,554909
9.80597,484233
9.81073,486928
9.81548,449436
9.82025,488067
9.82502,480971
9.82978,497600
9.83453,483789
9.8393,490172
9.84407,476603
9.84882,510541
9.85358,505732
9.85835,510589
9.86312,481042
9.86787,490695
9.87263,506072
9.8774,494086
9.88217,501948
9.88692,488196
9.89168,484034
9.89645,484299
9.9012,508213
9.90597,509267
9.91073,473152
9.9155,483477
9.92025,463547
9.92502,511066
9.92978,475518
9.93453,497285
9.9393,498693
9.94407,493972
9.94883,489416
9.95358,478378
9.95835,539059
9.96312,530517
9.96787,687655
9.97263,720992
9.9774,620684
9.98217,637845
9.98692,638187
9.99168,692338
9.99645,687792
10.0012,707403
10.006,654008
10.0107,636898
10.0155,610867
10.0203,579288
10.025,543994
10.0298,531801
10.0346,524134
10.0393,508927
10.0441,510032
10.0488,497140
10.0536,498388
10.0584,487605
10.0631,507803
10.0679,509566
10.0726,528880
10.0774,484423
10.0822,479141
10.0869,512808
10.0917,510652
10.0965,522949
10.1012,518541
10.106,508713
10.1107,507195
10.1155,505387
10.1203,522466
10.125,525437
10.1298,517237
10.1346,536142
10.1393,582017
10.1441,547342
10.1488,576189
10.1536,553947
10.1584,584340
10.1631,535808
10.1679,545790
10.1726,501632
10.1774,513501
10.1822,478323
10.1869,513537
10.1917,534435
10.1965,480073
10.2012,497563
10.206,569959
10.2107,551877
10.2155,586886
10.2203,557008
10.225,576264
10.2298,552663
10.2346,567446
10.2393,565106
10.2441,525291
10.2488,513879
10.2536,495912
10.2584,498897
10.2631,500045
10.2679,504903
10.2726,527483
10.2774,512223
10.2822,497324
10.2869,526972
10.2917,484268
10.2965,513025
10.3012,514670
10.306,511634
10.3107,516099
10.3155,500230
10.3203,494883
10.325,483636
10.3298,484348
10.3346,469063
10.3393,457877
10.3441,497814
10.3488,488338
10.3536,466260
10.3584,489669
10.3631,483554
10.3679,531543
10.3727,511328
10.3774,507609
10.3822,499308
10.3869,487851
10.3917,484928
10.3965,511806
10.4012,511987
10.406,477832
10.4107,507830
10.4155,463321
10.4203,495331
10.425,516448
10.4298,514156
10.4346,499531
10.4393,519206
10.4441,499575
10.4488,508574
10.4536,510012
10.4584,490200
10.4631,494040
10.4679,478933
10.4727,490596
10.4774,487160
10.4822,508047
10.4869,491240
10.4917,533998
10.4965,574999
10.5012,603470
10.506,650552
10.5107,717196
10.5155,653079
10.5203,636599
10.525,617917
10.5298,593635
10.5346,543486
10.5393,520000
10.5441,549985
10.5488,485676
10.5536,496563
10.5584,515717
10.5631,518629
10.5679,509529
10.5727,531090
10.5774,522720
10.5822,499311
10.5869,538174
10.5917,545229
10.5965,540091
10.6012,590820
10.606,587367
10.6107,652457
10.6155,695724
10.6203,728353
10.625,703309
10.6298,635028
10.6346,620251
10.6393,557075
10.6441,528370
10.6488,529972
10.6536,505007
10.6584,490687
10.6631,496790
10.6679,506041
10.6727,494312
10.6774,526324
10.6822,496819
10.6869,500301
10.6917,497091
10.6965,528693
10.7012,492676
10.706,514451
10.7108,537201
10.7155,550805
10.7203,578724
10.725,547697
10.7298,557063
10.7346,519323
10.7393,516145
10.7441,508856
10.7488,476450
10.7536,485184
10.7584,503257
10.7631,546049
10.7679,533829
10.7727,566732
10.7774,549622
10.7822,577071
10.7869,584946
10.7917,595781
10.7965,547202
10.8012,582826
10.806,554657
10.8108,560506
10.8155,526949
10.8203,518960
10.825,515873
10.8298,510194
10.8346,506538
10.8393,529230
10.8441,505246
10.8488,550636
10.8536,533007
10.8584,524200
10.8631,532214
10.8679,489441
10.8727,517996
10.8774,511019
10.8822,518661
10.8869,525108
10.8917,539108
10.8965,503776
10.9012,521103
10.906,498641
10.9108,509124
10.9155,514435
10.9203,547790
10.925,522894
10.9298,518757
10.9346,534292
10.9393,520024
10.9441,530785
10.9488,523623
10.9536,530169
10.9584,541439
10.9631,556006
10.9679,563894
10.9727,558681
10.9774,572141
10.9822,574686
10.9869,548434
10.9917,548564
10.9965,522129
11.0012,548094
11.006,569049
11.0108,575116
11.0155,548020
11.0203,562031
11.025,549390
11.0298,549737
11.0346,556760
11.0393,533842
11.0441,547785
11.0488,529432
11.0536,520075
11.0584,575511
11.0631,564121
11.0679,579970
11.0727,560904
11.0774,543044
11.0822,559430
11.0869,546294
11.0917,550230
11.0965,515909
11.1012,536169
11.106,568208
11.1108,555977
11.1155,571496
11.1203,550809
11.125,560369
11.1298,556055
11.1346,534140
11.1393,513222
11.1441,552501
11.1489,518431
11.1536,549894
11.1584,532548
11.1631,540980
11.1679,531453
11.1727,530701
11.1774,507048
11.1822,522471
11.1869,520253
11.1917,490043
11.1965,538282
11.2012,483307
11.206,495307
11.2108,512045
11.2155,489118
11.2203,527248
11.225,542560
11.2298,527190
11.2346,535032
11.2393,560200
11.2441,578189
11.2489,598725
11.2536,595963
11.2584,595801
11.2631,570735
11.2679,528723
11.2727,559634
11.2774,566736
11.2822,551903
11.2869,543386
11.2917,540477
11.2965,522342
11.3012,499145
11.306,550854
11.3108,551031
11.3155,548168
11.3203,563860
11.325,545052
11.3298,551927
11.3346,540190
11.3393,545078
11.3441,516069
11.3489,505258
11.3536,546846
11.3584,487818
11.3631,533757
11.3679,485593
11.3727,512637
11.3774,519592
11.3822,513762
11.3869,517300
11.3917,516944
11.3965,545566
11.4012,542080
11.406,520861
11.4108,505967
11.4155,519759
11.4203,518105
11.425,536818
11.4298,535750
11.4346,525955
11.4393,540942
11.4441,545347
11.4489,508613
11.4536,576293
11.4584,562170
11.4631,560135
11.4679,553210
11.4727,502303
11.4774,546710
11.4822,515320
11.487,540971
11.4917,566201
11.4965,602465
11.5012,638702
11.506,599491
11.5108,566870
11.5155,552368
11.5203,532660
11.525,529965
11.5298,508032
11.5346,521045
11.5393,547587
11.5441,527534
11.5489,537943
11.5536,534068
11.5584,535044
11.5631,497795
11.5679,529591
11.5727,516112
11.5774,508318
11.5822,525747
11.587,521267
11.5917,544821
11.5965,512800
11.6012,540405
11.606,566302
11.6108,570943
11.6155,547911
11.6203,601286
11.625,543357
11.6298,523632
11.6346,514458
11.6393,521087
11.6441,503846
11.6489,518997
11.6536,556088
11.6584,541769
11.6631,582374
11.6679,613799
11.6727,603983
11.6774,620984
11.6822,610933
11.687,590568
11.6917,574903
11.6965,544909
11.7012,566828
11.706,550050
11.7108,566602
11.7155,607577
11.7203,643125
11.725,657814
11.7298,616624
11.7346,594577
11.7393,585773
11.7441,543383
11.7489,556486
11.7536,512864
11.7584,521582
11.7631,516271
11.7679,541097
11.7727,594445
11.7774,585339
11.7822,617720
11.787,660587
11.7917,711289
11.7965,723209
11.8012,692267
11.806,689910
11.8108,625177
11.8155,619084
11.8203,569523
11.8251,578750
11.8298,579527
11.8346,551493
11.8393,552242
11.8441,542018
11.8489,581458
11.8536,574019
11.8584,538044
11.8631,567234
11.8679,576253
11.8727,538872
11.8774,567676
11.8822,585344
11.887,548153
11.8917,572940
11.8965,605866
11.9012,545344
11.906,587444
11.9108,542744
11.9155,537767
11.9203,529914
11.9251,547196
11.9298,539216
11.9346,536276
11.9393,559906
11.9441,527288
11.9489,511855
11.9536,546543
11.9584,571776
11.9631,546834
11.9679,563098
11.9727,546390
11.9774,591378
11.9822,540522
11.987,542658
11.9917,541980
11.9965,570373
12.0012,536638
12.006,535214
12.0108,536164
12.0155,537200
12.0203,560703
12.0251,554680
12.0298,555528
12.0346,594400
12.0393,552166
12.0441,561555
12.0489,548802
12.0536,553400
12.0584,571838
12.0631,560275
12.0679,532579
12.0727,526775
12.0774,558404
12.0822,569649
12.087,572158
12.0917,581720
12.0965,556008
12.1012,608704
12.106,625398
12.1108,595648
12.1155,670126
12.1203,782115
12.1251,830960
12.1298,774192
12.1346,765206
12.1393,729144
12.1441,693625
12.1489,659759
12.1536,645157
12.1584,597296
12.1632,570980
12.1679,588048
12.1727,556875
12.1774,622107
12.1822,588749
12.187,612007
12.1917,590952
12.1965,641898
12.2012,629126
12.206,587180
12.2108,591732
12.2155,602932
12.2203,578433
12.2251,554017
12.2298,548893
12.2346,585038
12.2393,576514
12.2441,592498
12.2489,586659
12.2536,581961
12.2584,606662
12.2632,581415
12.2679,551816
12.2727,514558
12.2774,587347
12.2822,571735
12.287,657746
12.2917,967286
12.2965,1848219
12.3012,4281266
12.306,9424206
12.3108,17620326
12.3155,27537364
12.3203,29698346
12.3251,26691884
12.3298,19858146
12.3346,12462413
12.3393,6184722
12.3441,3035111
12.3489,1690386
12.3536,1131250
12.3584,901797
12.3632,813239
12.3679,771653
12.3727,774624
12.3774,711527
12.3822,708013
12.387,711968
12.3917,714555
12.3965,715091
12.4012,722162
12.406,695198
12.4108,713096
12.4155,675102
12.4203,644236
12.4251,688471
12.4298,682021
12.4346,665049
12.4393,694589
12.4441,725830
12.4489,914393
12.4536,789691
12.4584,800208
12.4632,730297
12.4679,719677
12.4727,728674
12.4774,652348
12.4822,747529
12.487,806109
12.4917,838378
12.4965,907255
12.5013,854512
12.506,822808
12.5108,744214
12.5155,734820
12.5203,708066
12.5251,675981
12.5298,657801
12.5346,650648
12.5393,650331
12.5441,670867
12.5489,658333
12.5536,694065
12.5584,683276
12.5632,638629
12.5679,694825
12.5727,688211
12.5774,740480
12.5822,785446
12.587,827608
12.5917,848059
12.5965,872448
12.6013,816575
12.606,780319
12.6108,811786
12.6155,801780
12.6203,861794
12.6251,864004
12.6298,879204
12.6346,852707
12.6393,859695
12.6441,769730
12.6489,735360
12.6536,710537
12.6584,706720
12.6632,680173
12.6679,661657
12.6727,681244
12.6774,701348
12.6822,756328
12.687,712688
12.6917,747426
12.6965,744599
12.7013,743959
12.706,714058
12.7108,688775
12.7155,668263
12.7203,629161
12.7251,630934
12.7298,648507
12.7346,654303
12.7393,652672
12.7441,652227
12.7489,582258
12.7536,631456
12.7584,623428
12.7632,606204
12.7679,628264
12.7727,606398
12.7774,635573
12.7822,644339
12.787,650787
12.7917,676701
12.7965,677320
12.8013,635177
12.806,636619
12.8108,652011
12.8155,649355
12.8203,650366
12.8251,665133
12.8298,648295
12.8346,647340
12.8394,640319
12.8441,641136
12.8489,638093
12.8536,640265
12.8584,619210
12.8632,627211
12.8679,634646
12.8727,611880
12.8774,613129
12.8822,614770
12.887,604474
12.8917,626481
12.8965,609242
12.9013,627667
12.906,609953
12.9108,616679
12.9155,618953
12.9203,628593
12.9251,633887
12.9298,636965
12.9346,615661
12.9394,641743
12.9441,605263
12.9489,593936
12.9536,632341
12.9584,631027
12.9632,646305
12.9679,643750
12.9727,643961
12.9774,642865
12.9822,593940
12.987,625804
12.9917,609306
12.9965,624260
13.0013,619603
13.006,623242
13.0108,598642
13.0155,634056
13.0203,646076
13.0251,628520
13.0298,649573
13.0346,631169
13.0394,652765
13.0441,622713
13.0489,650040
13.0536,635838
13.0584,644957
13.0632,697479
13.0679,797091
13.0727,885554
13.0774,972618
13.0822,973189
13.087,938072
13.0917,844189
13.0965,782334
13.1013,727838
13.106,704190
13.1108,689631
13.1155,677338
13.1203,732695
13.1251,764777
13.1298,845407
13.1346,966770
13.1394,1059273
13.1441,1043078
13.1489,1011200
13.1536,872649
13.1584,821605
13.1632,791615
13.1679,730222
13.1727,711368
13.1775,717626
13.1822,710305
13.187,677593
13.1917,706440
13.1965,686508
13.2013,714082
13.206,781801
13.2108,808401
13.2155,828244
13.2203,841503
13.2251,774787
13.2298,719182
13.2346,719628
13.2394,693289
13.2441,666807
13.2489,638880
13.2536,675061
13.2584,665850
13.2632,652658
13.2679,629108
13.2727,642766
13.2775,622083
13.2822,643892
13.287,645419
13.2917,652129
13.2965,621496
13.3013,646063
13.306,642777
13.3108,663011
13.3155,663504
13.3203,662090
13.3251,656392
13.3298,657498
13.3346,633826
13.3394,648275
13.3441,652638
13.3489,648712
13.3536,660640
13.3584,689361
13.3632,660439
13.3679,661025
13.3727,654821
13.3775,674901
13.3822,679262
13.387,620840
13.3917,660093
13.3965,663772
13.4013,668137
13.406,645557
13.4108,644004
13.4155,652825
13.4203,623318
13.4251,695485
13.4298,689476
13.4346,695712
13.4394,690778
13.4441,682949
13.4489,686004
13.4536,694692
13.4584,661292
13.4632,647861
13.4679,672435
13.4727,625586
13.4775,699230
13.4822,678193
13.487,660086
13.4917,665206
13.4965,689556
13.5013,723208
13.506,740578
13.5108,814272
13.5156,797161
13.5203,825248
13.5251,837094
13.5298,723841
13.5346,696669
13.5394,688225
13.5441,665404
13.5489,680066
13.5536,626980
13.5584,677697
13.5632,645890
13.5679,653617
13.5727,644163
13.5775,625536
13.5822,605711
13.587,653723
13.5917,656345
13.5965,666725
13.6013,652152
13.606,637864
13.6108,665766
13.6156,637840
13.6203,627183
13.6251,668797
13.6298,665050
13.6346,678303
13.6394,707223
13.6441,683553
13.6489,725384
13.6536,709383
13.6584,687799
13.6632,711467
13.6679,669209
13.6727,706203
13.6775,653028
13.6822,653361
13.687,680903
13.6917,653494
13.6965,692674
13.7013,651101
13.706,631391
13.7108,631541
13.7156,659673
13.7203,664087
13.7251,640381
13.7298,643442
13.7346,668757
13.7394,669413
13.7441,698877
13.7489,674533
13.7536,748838
13.7584,720942
13.7632,730833
13.7679,751738
13.7727,753980
13.7775,686870
13.7822,689344
13.787,700743
13.7917,668471
13.7965,626249
13.8013,657908
13.806,673280
13.8108,678284
13.8156,630015
13.8203,622585
13.8251,655773
13.8298,624808
13.8346,598601
13.8394,655570
13.8441,645395
13.8489,684227
13.8537,624249
13.8584,683331
13.8632,654182
13.8679,739102
13.8727,829699
13.8775,843563
13.8822,823512
13.887,813261
13.8917,744396
13.8965,762088
13.9013,766965
13.906,757477
13.9108,777844
13.9156,779202
13.9203,754542
13.9251,741588
13.9298,704892
13.9346,707284
13.9394,668794
13.9441,695139
13.9489,681011
13.9537,704037
13.9584,682319
13.9632,689228
13.9679,716890
13.9727,709863
13.9775,708332
13.9822,730470
13.987,750571
13.9917,753242
13.9965,782663
14.0013,784400
14.006,782270
14.0108,747302
14.0156,741433
14.0203,699112
14.0251,672778
14.0298,729065
14.0346,703761
14.0394,731949
14.0441,800290
14.0489,960233
14.0537,1136740
14.0584,1213060
14.0632,1260210
14.0679,1216777
14.0727,1099390
14.0775,988439
14.0822,889664
14.087,911234
14.0917,855081
14.0965,808048
14.1013,802824
14.106,780701
14.1108,743630
14.1156,737470
14.1203,728094
14.1251,752388
14.1298,747189
14.1346,758888
14.1394,798804
14.1441,862516
14.1489,878818
14.1537,934316
14.1584,950300
14.1632,940112
14.1679,876437
14.1727,796745
14.1775,779933
14.1822,755867
14.187,758369
14.1918,768564
14.1965,746218
14.2013,843842
14.206,854947
14.2108,901957
14.2156,878736
14.2203,887710
14.2251,889681
14.2298,969215
14.2346,1078790
14.2394,1203223
14.2441,1240657
14.2489,1180885
14.2537,1072837
14.2584,985259
14.2632,889031
14.2679,871325
14.2727,876084
14.2775,805434
14.2822,794683
14.287,770595
14.2918,781065
14.2965,795325
14.3013,784342
14.306,743452
14.3108,779535
14.3156,711880
14.3203,753919
14.3251,789334
14.3298,827819
14.3346,780842
14.3394,818802
14.3441,762949
14.3489,792198
14.3537,796012
14.3584,817150
14.3632,822513
14.3679,876137
14.3727,920924
14.3775,1017038
14.3822,1110316
14.387,1162194
14.3918,1330574
14.3965,1421326
14.4013,1450780
14.406,1356898
14.4108,1191769
14.4156,1015186
14.4203,965102
14.4251,858963
14.4298,823070
14.4346,843227
14.4394,850229
14.4441,848289
14.4489,851900
14.4537,814479
14.4584,860068
14.4632,815997
14.4679,782056
14.4727,785854
14.4775,797289
14.4822,782852
14.487,840387
14.4918,799307
14.4965,840908
14.5013,828782
14.506,805191
14.5108,808463
14.5156,758194
14.5203,792455
14.5251,795340
14.5299,792119
14.5346,833118
14.5394,803470
14.5441,810042
14.5489,784343
14.5537,819737
14.5584,787915
14.5632,788232
14.5679,778965
14.5727,765859
14.5775,788599
14.5822,781261
14.587,795365
14.5918,783275
14.5965,758413
14.6013,796660
14.606,769443
14.6108,804473
14.6156,790760
14.6203,805458
14.6251,797791
14.6299,799289
14.6346,790937
14.6394,774733
14.6441,782957
14.6489,749164
14.6537,794173
14.6584,814529
14.6632,806371
14.6679,836666
14.6727,845698
14.6775,813582
14.6822,821341
14.687,845227
14.6918,812896
14.6965,791519
14.7013,803253
14.706,788494
14.7108,811772
14.7156,806368
14.7203,805534
14.7251,815829
14.7299,790028
14.7346,801997
14.7394,814887
14.7441,864070
14.7489,913541
14.7537,953657
14.7584,966129
14.7632,972722
14.7679,909780
14.7727,883043
14.7775,849496
14.7822,855009
14.787,818861
14.7918,832104
14.7965,815542
14.8013,786203
14.806,763977
14.8108,782989
14.8156,783594
14.8203,809722
14.8251,803830
14.8299,812852
14.8346,837164
14.8394,827833
14.8441,853608
14.8489,849455
14.8537,798435
14.8584,803635
14.8632,814866
14.868,748136
14.8727,799319
14.8775,778956
14.8822,768205
14.887,793067
14.8918,768360
14.8965,753774
14.9013,765818
14.906,788952
14.9108,775258
14.9156,772789
14.9203,784227
14.9251,816182
14.9299,835214
14.9346,949225
14.9394,993578
14.9441,1035307
14.9489,972791
14.9537,950898
14.9584,924704
14.9632,888146
14.968,841828
14.9727,807513
14.9775,822245
14.9822,830938
14.987,815386
14.9918,812859
14.9965,812484
15.0013,793396
15.006,784299
15.0108,819197
15.0156,786877
15.0203,814214
15.0251,775891
15.0299,806955
15.0346,820557
15.0394,775421
15.0441,802343
15.0489,781552
15.0537,824054
15.0584,814929
15.0632,793816
15.068,800660
15.0727,806470
15.0775,793386
15.0822,832503
15.087,807356
15.0918,834271
15.0965,789406
15.1013,795507
15.106,825716
15.1108,835919
15.1156,795053
15.1203,800123
15.1251,792476
15.1299,818778
15.1346,809116
15.1394,795268
15.1441,799301
15.1489,831662
15.1537,868740
15.1584,912741
15.1632,984978
15.168,996561
15.1727,1028331
15.1775,1031343
15.1822,932954
15.187,955882
15.1918,901012
15.1965,953924
15.2013,925646
15.2061,929484
15.2108,923222
15.2156,887624
15.2203,940978
15.2251,947302
15.2299,915153
15.2346,972214
15.2394,932013
15.2441,883989
15.2489,874251
15.2537,872782
15.2584,820676
15.2632,845842
15.268,839522
15.2727,857904
15.2775,825021
15.2822,805988
15.287,855526
15.2918,834052
15.2965,821389
15.3013,866141
15.3061,879603
15.3108,937995
15.3156,930846
15.3203,987511
15.3251,964221
15.3299,993934
15.3346,954012
15.3394,978041
15.3441,874004
15.3489,849544
15.3537,864780
15.3584,849824
15.3632,784659
15.368,810270
15.3727,850777
15.3775,805593
15.3822,812180
15.387,795308
15.3918,815636
15.3965,823439
15.4013,818481
15.4061,833658
15.4108,852565
15.4156,827374
15.4203,868739
15.4251,848753
15.4299,851348
15.4346,869221
15.4394,842842
15.4441,842807
15.4489,846108
15.4537,854375
15.4584,874075
15.4632,892774
15.468,941834
15.4727,927883
15.4775,974780
15.4822,945635
15.487,894866
15.4918,878029
15.4965,895362
15.5013,840838
15.5061,837942
15.5108,851821
15.5156,877219
15.5203,890453
15.5251,949285
15.5299,954433
15.5346,1003587
15.5394,1001103
15.5442,979047
15.5489,988575
15.5537,958093
15.5584,945347
15.5632,928389
15.568,916265
15.5727,950165
15.5775,893574
15.5822,913554
15.587,926463
15.5918,867471
15.5965,871853
15.6013,892709
15.6061,870420
15.6108,845417
15.6156,884034
15.6203,849123
15.6251,883290
15.6299,858976
15.6346,887696
15.6394,883243
15.6442,898526
15.6489,873753
15.6537,862976
15.6584,895600
15.6632,886344
15.668,899063
15.6727,953697
15.6775,1024019
15.6822,1099841
15.687,1168432
15.6918,1213376
15.6965,1150084
15.7013,1057670
15.7061,995484
15.7108,999217
15.7156,923045
15.7203,1022738
15.7251,1156501
15.7299,1589547
15.7346,2866020
15.7394,5954544
15.7442,11139436
15.7489,17615022
15.7537,21749762
15.7584,19015750
15.7632,13420976
15.768,7808412
15.7727,4111776
15.7775,2390405
15.7822,1694378
15.787,1360386
15.7918,1299037
15.7965,1260016
15.8013,1235695
15.8061,1216218
15.8108,1154741
15.8156,1145877
15.8203,1140966
15.8251,1117063
15.8299,1117336
15.8346,1103184
15.8394,1165852
15.8442,1229386
15.8489,1230528
15.8537,1299214
15.8584,1308025
15.8632,1315115
15.868,1358305
15.8727,1334663
15.8775,1366892
15.8823,1322390
15.887,1283778
15.8918,1314498
15.8965,1243783
15.9013,1250608
15.9061,1201375
15.9108,1150037
15.9156,1128809
15.9203,1155047
15.9251,1144020
15.9299,1132728
15.9346,1088297
15.9394,1142280
15.9442,1131390
15.9489,1109991
15.9537,1146644
15.9584,1092883
15.9632,1172716
15.968,1148389
15.9727,1157345
15.9775,1188942
15.9823,1209585
15.987,1253892
15.9918,1208774
15.9965,1177015
16.0013,1218956
16.006,1145815
16.0108,1156632
16.0156,1262156
16.0203,1321482
16.0251,1482064
16.0299,1611354
16.0346,1517593
16.0394,1372637
16.0441,1286778
16.0489,1236141
16.0537,1187237
16.0584,1253606
16.0632,1195619
16.068,1177994
16.0727,1182875
16.0775,1216778
16.0822,1247092
16.087,1174514
16.0918,1189063
16.0965,1225420
16.1013,1242539
16.1061,1238464
16.1108,1294738
16.1156,1279469
16.1203,1280415
16.1251,1325670
16.1299,1287891
16.1346,1275722
16.1394,1310446
16.1442,1297196
16.1489,1291395
16.1537,1306673
16.1584,1315510
16.1632,1296360
16.168,1238514
16.1727,1287708
16.1775,1251949
16.1823,1279833
16.187,1270646
16.1918,1295426
16.1965,1298335
16.2013,1353947
16.2061,1337660
16.2108,1363468
16.2156,1350208
16.2204,1358656
16.2251,1336298
16.2299,1375324
16.2346,1320386
16.2394,1343925
16.2442,1326807
16.2489,1380334
16.2537,1371800
16.2584,1325071
16.2632,1379101
16.268,1405711
16.2727,1343803
16.2775,1398254
16.2823,1392067
16.287,1426421
16.2918,1405482
16.2965,1410651
16.3013,1492440
16.306,1446630
16.3108,1434399
16.3156,1488296
16.3204,1446708
16.3251,1431780
16.3299,1417463
16.3346,1471333
16.3394,1455427
16.3441,1428892
16.3489,1503825
16.3537,1456540
16.3584,1528686
16.3632,1565992
16.368,1710857
16.3727,1862368
16.3775,1884420
16.3822,1776002
16.387,1721897
16.3918,1654135
16.3965,1671718
16.4013,1773782
16.4061,1865329
16.4108,2064151
16.4156,2160383
16.4203,2084670
16.4251,1817512
16.4299,1694742
16.4346,1665574
16.4394,1681345
16.4442,1722598
16.4489,1733698
16.4537,1832598
16.4584,2004801
16.4632,2051730
16.468,2016401
16.4727,1907112
16.4775,1793757
16.4823,1785200
16.487,1741765
16.4918,1718943
16.4965,1736752
16.5013,1706416
16.5061,1721763
16.5108,1703322
16.5156,1748746
16.5204,1797815
16.5251,1818992
16.5299,1833382
16.5346,1874612
16.5394,1838271
16.5441,1850723
16.5489,1918792
16.5537,1816423
16.5584,1894403
16.5632,1892622
16.568,1873104
16.5727,1940667
16.5775,1885143
16.5822,1914709
16.587,1926069
16.5918,1934029
16.5965,1922114
16.6013,1907324
16.6061,1898541
16.6108,1954845
16.6156,2023288
16.6203,2040752
16.6251,2059956
16.6299,1969214
16.6346,2007592
16.6394,1949903
16.6442,1942013
16.6489,2002660
16.6537,1928599
16.6584,1989897
16.6632,1994784
16.668,2019891
16.6727,1998126
16.6775,1986147
16.6823,1969741
16.687,1989565
16.6918,2006779
16.6965,2052248
16.7013,1943095
16.7061,2066097
16.7108,1973623
16.7156,2013491
16.7204,2058660
16.7251,2016347
16.7299,2030125
16.7346,2068203
16.7394,2064393
16.7442,2070481
16.7489,2083345
16.7537,2071649
16.7585,2037985
16.7632,2057471
16.768,2097884
16.7727,2121311
16.7775,2128903
16.7823,2100641
16.787,2166913
16.7918,2126866
16.7965,2141924
16.8013,2189500
16.8061,2226035
16.8108,2258834
16.8156,2217236
16.8204,2184673
16.8251,2334365
16.8299,2359158
16.8346,2373878
16.8394,2324053
16.8442,2273862
16.8489,2259842
16.8537,2264153
16.8585,2318217
16.8632,2361140
16.868,2369859
16.8727,2306428
16.8775,2269544
16.8822,2250495
16.887,2199418
16.8918,2177823
16.8965,2170467
16.9013,2253114
16.9061,2352012
16.9108,2311605
16.9156,2316398
16.9203,2388079
16.9251,2510217
16.9299,2532600
16.9346,2532734
16.9394,2402569
16.9442,2362969
16.9489,2369577
16.9537,2355985
16.9584,2490678
16.9632,2414093
16.968,2426362
16.9727,2440459
16.9775,2499555
16.9823,2569439
16.987,2536494
16.9918,2561536
16.9965,2546791
17.0013,2500180
17.0061,2531008
17.0108,2655462
17.0156,2906669
17.0204,3006387
17.0251,2815793
17.0299,2644762
17.0346,2570793
17.0394,2504854
17.0442,2525459
17.0489,2553961
17.0537,2521540
17.0585,2516995
17.0632,2415130
17.068,2444564
17.0727,2424555
17.0775,2421615
17.0823,2426577
17.087,2450743
17.0918,2472488
17.0966,2573066
17.1013,2425445
17.1061,2546450
17.1108,2699111
17.1156,2882689
17.1203,3311649
17.1251,3472095
17.1299,4042793
17.1346,5067025
17.1394,6753226
17.1442,8432988
17.1489,8253262
17.1537,6469293
17.1584,4747272
17.1632,3618343
17.168,3024659
17.1727,2892038
17.1775,2788134
17.1823,2724156
17.187,2737128
17.1918,2697221
17.1965,2763811
17.2013,2673562
17.2061,2657946
17.2108,2679609
17.2156,2627901
17.2204,2676076
17.2251,2611735
17.2299,2648139
17.2346,2651098
17.2394,2612435
17.2442,2604024
17.2489,2606820
17.2537,2621355
17.2585,2615121
17.2632,2588982
17.268,2633815
17.2727,2623675
17.2775,2587693
17.2823,2734917
17.287,2699573
17.2918,2682082
17.2966,2804534
17.3013,3285572
17.3061,4616150
17.3108,6940666
17.3156,9425064
17.3204,9805457
17.3251,8052246
17.3299,5789373
17.3347,4192988
17.3394,3513176
17.3442,3179671
17.3489,2971522
17.3537,2939420
17.3585,2866488
17.3632,2768190
17.368,2728351
17.3727,2726724
17.3775,2759930
17.3823,2734769
17.387,2742848
17.3918,2742489
17.3966,2722773
17.4013,2676839
17.4061,2653390
17.4108,2705576
17.4156,2670714
17.4203,2747947
17.4251,2715953
17.4299,2765618
17.4347,2744823
17.4394,2729133
17.4442,2748882
17.4489,2703795
17.4537,2691712
17.4584,2815062
17.4632,2846249
17.468,2821165
17.4727,2801665
17.4775,2844097
17.4823,2756873
17.487,2783022
17.4918,2816024
17.4965,2792850
17.5013,2859226
17.5061,2840979
17.5108,2764216
17.5156,2849048
17.5204,2798833
17.5251,2784566
17.5299,2806318
17.5346,2818735
17.5394,2769508
17.5442,2788216
17.5489,2757173
17.5537,2800538
17.5585,2739916
17.5632,2796163
17.568,2813471
17.5727,2786215
17.5775,2819624
17.5823,2821715
17.587,2854226
17.5918,2824731
17.5966,2886305
17.6013,3131754
17.6061,3201920
17.6108,3200367
17.6156,3021038
17.6204,2917897
17.6251,2842189
17.6299,2876062
17.6347,2856214
17.6394,2973684
17.6442,3408392
17.6489,5169136
17.6537,9840453
17.6585,19085708
17.6632,29015300
17.668,32190700
17.6728,25777108
17.6775,16296751
17.6823,9713953
17.687,6300022
17.6918,4692192
17.6966,4173108
17.7013,3722222
17.7061,3537939
17.7108,3393022
17.7156,3307294
17.7204,3231419
17.7251,3183778
17.7299,3070232
17.7347,3005662
17.7394,3067352
17.7442,3011848
17.7489,2976214
17.7537,3015702
17.7585,3051179
17.7632,3016938
17.768,3077668
17.7728,3166437
17.7775,3450805
17.7823,3827125
17.787,4312330
17.7918,4263506
17.7966,3911796
17.8013,3637632
17.8061,3336607
17.8108,3121138
17.8156,3105215
17.8204,3013624
17.8251,2970547
17.8299,3029674
17.8347,2856613
17.8394,2894220
17.8442,2954456
17.8489,2970332
17.8537,2892967
17.8585,2945818
17.8632,2924822
17.868,2946872
17.8728,2905091
17.8775,2933888
17.8823,2916950
17.887,2957419
17.8918,2942591
17.8966,2997541
17.9013,3002630
17.9061,3091574
17.9108,3237629
17.9156,3349814
17.9204,3416077
17.9251,3391012
17.9299,3262884
17.9347,3148901
17.9394,3064196
17.9442,3036257
17.9489,2965419
17.9537,3044773
17.9585,3096497
17.9632,3065322
17.968,2989108
17.9728,2976912
17.9775,2990011
17.9823,2914004
17.987,2964101
17.9918,2898583
17.9965,2927712
18.0013,2952972
18.0061,2920036
18.0109,2955337
18.0156,2982420
18.0204,2959999
18.0251,2936205
18.0299,2876293
18.0346,2940264
18.0394,2951890
18.0442,2968587
18.0489,2972682
18.0537,2961276
18.0585,2962810
18.0632,2934202
18.068,2941848
18.0727,3305894
18.0775,4131430
18.0823,7217719
18.087,14245444
18.0918,27134458
18.0966,41563884
18.1013,47909252
18.1061,43193436
18.1108,29883126
18.1156,18140698
18.1204,10736420
18.1251,7352062
18.1299,5794639
18.1347,4959839
18.1394,4508667
18.1442,4385153
18.1489,4658938
18.1537,4971362
18.1585,5465543
18.1632,5524444
18.168,5276791
18.1728,4658070
18.1775,4062347
18.1823,3722533
18.187,3650212
18.1918,3443780
18.1966,3359936
18.2013,3283028
18.2061,3231532
18.2109,3212732
18.2156,3126808
18.2204,3196200
18.2251,3098007
18.2299,3214180
18.2347,3157179
18.2394,3121837
18.2442,3048434
18.2489,3077654
18.2537,3054926
18.2585,3042432
18.2632,3078203
18.268,3291113
18.2728,4181805
18.2775,6308541
18.2823,10913514
18.287,18860366
18.2918,27329982
18.2966,31058660
18.3013,27091530
18.3061,20402904
18.3109,13588395
18.3156,8849155
18.3204,6404674
18.3251,5256578
18.3299,4591569
18.3347,4199819
18.3394,3918500
18.3442,3802885
18.349,3611763
18.3537,3517870
18.3585,3420520
18.3632,3359379
18.368,3268559
18.3728,3277407
18.3775,3304230
18.3823,3297826
18.387,3198572
18.3918,3148504
18.3966,3068452
18.4013,3086852
18.4061,3121273
18.4109,3093670
18.4156,3116222
18.4204,3060288
18.4251,3107911
18.4299,3088912
18.4347,3076055
18.4394,3054820
18.4442,3010495
18.449,3053964
18.4537,3059093
18.4585,2998250
18.4632,3068416
18.468,3066054
18.4728,3043399
18.4775,2934960
18.4823,3139251
18.487,3056846
18.4918,3060169
18.4966,3038496
18.5013,2971431
18.5061,2963594
18.5109,3014876
18.5156,3084726
18.5204,3081500
18.5251,3016318
18.5299,2994288
18.5347,2996959
18.5394,3099099
18.5442,3098595
18.549,3083217
18.5537,3089200
18.5585,3003450
18.5632,2988028
18.568,2958052
18.5727,2972578
18.5775,2969957
18.5823,3072617
18.587,2980633
18.5918,2968590
18.5966,3015257
18.6013,3057669
18.6061,3045309
18.6108,3012955
18.6156,3044786
18.6204,3222923
18.6251,3236555
18.6299,3404966
18.6347,3413076
18.6394,3421228
18.6442,3206031
18.6489,3203412
18.6537,3189521
18.6585,3023362
18.6632,3161891
18.668,3074672
18.6728,3228764
18.6775,3390841
18.6823,4174998
18.687,5907958
18.6918,9147121
18.6966,14029885
18.7013,19130758
18.7061,21993354
18.7109,21344948
18.7156,16830590
18.7204,12102268
18.7251,8371556
18.7299,6215003
18.7347,5014924
18.7394,4364874
18.7442,3994465
18.749,3759704
18.7537,3579107
18.7585,3489520
18.7632,3318287
18.768,3275108
18.7728,3314251
18.7775,3154682
18.7823,3275722
18.7871,3120709
18.7918,3166357
18.7966,3172978
18.8013,3085606
18.8061,3114481
18.8109,3121237
18.8156,3163213
18.8204,3130272
18.8251,3128926
18.8299,3179882
18.8347,3360846
18.8394,3596493
18.8442,3822074
18.849,4198388
18.8537,4097422
18.8585,4040401
18.8632,3771889
18.868,3598142
18.8728,3362400
18.8775,3264509
18.8823,3235283
18.8871,3038376
18.8918,3131958
18.8966,3186758
18.9013,3132661
18.9061,3056709
18.9109,3139969
18.9156,3054908
18.9204,3023708
18.9251,3037634
18.9299,3052283
18.9347,3048011
18.9394,2978731
18.9442,3156229
18.949,3008361
18.9537,3017112
18.9585,3075204
18.9632,3045484
18.968,2943791
18.9728,2926255
18.9775,2999629
18.9823,3037575
18.9871,2961332
18.9918,2931688
18.9966,3032096
19.0013,2985977
19.0061,3008248
19.0109,2992827
19.0156,2985291
19.0204,2989794
19.0252,2969421
19.0299,2938015
19.0347,3034198
19.0394,3013510
19.0442,3079390
19.049,3017528
19.0537,3007428
19.0585,2981400
19.0632,2984703
19.068,2976475
19.0728,2949702
19.0775,2976893
19.0823,2979229
19.0871,2958009
19.0918,3004523
19.0966,3020069
19.1013,2993991
19.1061,2951711
19.1108,3054006
19.1156,2900353
19.1204,2976941
19.1252,3029413
19.1299,2941762
19.1347,2989841
19.1394,2963010
19.1442,3001299
19.1489,2935573
19.1537,3020858
19.1585,2909193
19.1632,3033036
19.168,2977634
19.1728,2996574
19.1775,2943073
19.1823,2952965
19.187,2979863
19.1918,2982199
19.1966,3063918
19.2013,3114382
19.2061,3557791
19.2109,3987658
19.2156,5038528
19.2204,6556947
19.2251,8319519
19.2299,10036240
19.2347,10824016
19.2394,10769891
19.2442,9370423
19.249,7539549
19.2537,5878980
19.2585,4686998
19.2632,4204997
19.268,3860352
19.2728,3503098
19.2775,3446206
19.2823,3304537
19.2871,3384211
19.2918,3330511
19.2966,3315927
19.3013,3454337
19.3061,3471589
19.3109,3510145
19.3156,3608827
19.3204,3607828
19.3252,3440952
19.3299,3342185
19.3347,3148340
19.3394,3209928
19.3442,3093474
19.349,3085055
19.3537,3097100
19.3585,3048380
19.3633,3065793
19.368,3067506
19.3728,3023627
19.3775,3072024
19.3823,2956178
19.3871,2983718
19.3918,3038748
19.3966,3014169
19.4013,2939283
19.4061,2973376
19.4109,3043855
19.4156,2997616
19.4204,2945668
19.4252,2984623
19.4299,3024853
19.4347,3005837
19.4394,2979411
19.4442,3015141
19.449,3212358
19.4537,3296765
19.4585,3869090
19.4633,4710549
19.468,5906186
19.4728,7333972
19.4775,8489019
19.4823,9246298
19.4871,8948700
19.4918,7720175
19.4966,6757026
19.5013,5605856
19.5061,4666684
19.5109,4045188
19.5156,3729717
19.5204,3577173
19.5252,3407699
19.5299,3309280
19.5347,3266011
19.5394,3175317
19.5442,3121099
19.549,3132793
19.5537,3049152
19.5585,3029771
19.5633,3048295
19.568,3038269
19.5728,3099028
19.5775,2967846
19.5823,3016865
19.5871,3026976
19.5918,3015843
19.5966,3018099
19.6013,2985321
19.6061,2985210
19.6109,3084240
19.6156,3051068
19.6204,2993952
19.6252,2999682
19.6299,3003363
19.6347,3010044
19.6394,2962663
19.6442,2985877
19.649,2963016
19.6537,3023159
19.6585,2899895
19.6633,2992893
19.668,3032259
19.6728,2938241
19.6775,2895767
19.6823,2958559
19.687,3003997
19.6918,3002838
19.6966,2911782
19.7014,3053451
19.7061,2896916
19.7109,2991667
19.7156,2956897
19.7204,3003054
19.7251,3009170
19.7299,2987704
19.7347,2945063
19.7394,2987965
19.7442,2958225
19.749,2983074
19.7537,2905681
19.7585,2987904
19.7632,3010168
19.768,3000696
19.7728,2963242
19.7775,2888852
19.7823,2915855
19.7871,2965977
19.7918,2933447
19.7966,2936228
19.8013,2929689
19.8061,2968345
19.8109,2956752
19.8156,2908934
19.8204,2986273
19.8252,2975267
19.8299,2886114
19.8347,2974338
19.8394,2906270
19.8442,3002381
19.849,2940663
19.8537,2970770
19.8585,2892468
19.8633,2844456
19.868,2914674
19.8728,3017812
19.8775,2993266
19.8823,2969370
19.8871,2888099
19.8918,2921742
19.8966,2978377
19.9014,2961682
19.9061,3018344
19.9109,3051038
19.9156,2978103
19.9204,2931148
19.9252,2974168
19.9299,2898083
19.9347,2899227
19.9394,2966377
19.9442,2930267
19.949,2928485
19.9537,2905246
19.9585,2928797
19.9633,2905985
19.968,2936019
19.9728,2960565
19.9775,2966955
19.9823,3017025
19.9871,3004032
19.9918,3103432
19.9966,3239041
20.0014,3290964
20.0061,3400667
20.0109,3483956
20.0156,3522995
20.0204,3444142
20.0252,3383238
20.0299,3307751
20.0347,3160967
20.0395,3109074
20.0442,3131805
20.049,3021512
20.0537,3014492
20.0585,3010691
20.0633,2947806
20.068,2937121
20.0728,2989737
20.0775,2933114
20.0823,2977822
20.0871,2991484
20.0918,2965190
20.0966,2895029
20.1014,2946819
20.1061,2889662
20.1109,2954475
20.1156,2938273
20.1204,2933181
20.1252,2985193
20.1299,2988380
20.1347,2933240
20.1395,2903070
20.1442,2927908
20.149,3012126
20.1537,3022853
20.1585,2892868
20.1633,2911519
20.168,2929958
20.1728,2966117
20.1775,2925219
20.1823,2966785
20.1871,2977488
20.1918,2960010
20.1966,2955866
20.2014,3017680
20.2061,2938967
20.2109,3019054
20.2156,3039765
20.2204,2944616
20.2252,2957613
20.2299,2951064
20.2347,3012342
20.2395,2940335
20.2442,2933565
20.249,2925024
20.2537,2944461
20.2585,2969088
20.2632,2952534
20.268,2925174
20.2728,2867582
20.2775,2888651
20.2823,2874188
20.2871,2886792
20.2918,2904837
20.2966,2903664
20.3013,2984007
20.3061,2969455
20.3109,2926733
20.3156,3006980
20.3204,2905219
20.3252,2925169
20.3299,2923463
20.3347,2919062
20.3394,2871505
20.3442,2880257
20.349,2902553
20.3537,2959424
20.3585,2948336
20.3633,2914368
20.368,2961417
20.3728,2930146
20.3775,2896658
20.3823,2965605
20.3871,2981928
20.3918,2959240
20.3966,2965289
20.4014,2986194
20.4061,2889682
20.4109,2961323
20.4156,2952660
20.4204,2964635
20.4252,2870926
20.4299,2919068
20.4347,2865351
20.4395,2874436
20.4442,2964338
20.449,2874878
20.4537,2946294
20.4585,2904965
20.4633,2946833
20.468,2905755
20.4728,2903399
20.4776,2837359
20.4823,2857591
20.4871,2891156
20.4918,2861816
20.4966,2890385
20.5014,2918090
20.5061,2846706
20.5109,2939023
20.5156,2901869
20.5204,2823987
20.5252,2950974
20.5299,2930014
20.5347,2940003
20.5395,2908190
20.5442,2858673
20.549,2869124
20.5537,2869954
20.5585,2903085
20.5633,2926557
20.568,2916496
20.5728,2924880
20.5776,2850139
20.5823,2852607
20.5871,2893233
20.5918,2953855
20.5966,2897631
20.6014,2907392
20.6061,2909287
20.6109,2911839
20.6156,2890509
20.6204,2818828
20.6252,2911767
20.6299,2867748
20.6347,2866257
20.6395,2901348
20.6442,2784491
20.649,2906817
20.6537,2908525
20.6585,2919905
20.6633,2897207
20.668,2869727
20.6728,2966804
20.6776,2984439
20.6823,2815070
20.6871,2836981
20.6918,2988237
20.6966,2929952
20.7014,2986889
20.7061,2972674
20.7109,2972320
20.7157,2942697
20.7204,3048445
20.7252,3005837
20.7299,2961710
20.7347,3025265
20.7395,2951343
20.7442,2933827
20.749,3014319
20.7537,2900454
20.7585,2972458
20.7633,2939723
20.768,2925883
20.7728,2870052
20.7776,2824136
20.7823,2880428
20.7871,2880668
20.7918,2932634
20.7966,2909508
20.8013,2918116
20.8061,2914347
20.8109,2934373
20.8157,2916216
20.8204,2949874
20.8252,2926164
20.8299,2871724
20.8347,2858989
20.8394,2967351
20.8442,2908439
20.849,2879583
20.8537,2891957
20.8585,2909524
20.8633,2999561
20.868,2896542
20.8728,2893311
20.8775,2880889
20.8823,2891091
20.8871,2870553
20.8918,2930802
20.8966,2900177
20.9014,2824476
20.9061,2978266
20.9109,2851673
20.9156,2876886
20.9204,2863648
20.9252,2855893
20.9299,2865793
20.9347,2896140
20.9395,2929355
20.9442,2803644
20.949,2821539
20.9537,2890739
20.9585,2964124
20.9633,2960913
20.968,2888748
20.9728,2832465
20.9776,2819317
20.9823,2788851
20.9871,2863179
20.9918,2808706
20.9966,2911377
21.0014,2862269
21.0061,2889461
21.0109,2958159
21.0157,2947719
21.0204,2895423
21.0252,2977577
21.0299,3010596
21.0347,2948060
21.0395,2916675
21.0442,2955292
21.049,3008416
21.0538,3044825
21.0585,3041517
21.0633,2998892
21.068,2972275
21.0728,3005688
21.0776,2932833
21.0823,2973184
21.0871,2936967
21.0918,2841882
21.0966,2952958
21.1014,2867334
21.1061,2861144
21.1109,2867112
21.1157,2885781
21.1204,2857067
21.1252,2843272
21.1299,2852393
21.1347,2910107
21.1395,2822263
21.1442,2870310
21.149,2887160
21.1538,2925644
21.1585,2867145
21.1633,2868901
21.168,2858924
21.1728,2852507
21.1776,2864751
21.1823,2871780
21.1871,2885113
21.1918,2834292
21.1966,2872015
21.2014,2902544
21.2061,2856558
21.2109,2893869
21.2157,2897769
21.2204,2959638
21.2252,2985549
21.2299,2887537
21.2347,2781175
21.2395,2798472
21.2442,2809392
21.249,2893507
21.2538,2861176
21.2585,2869640
21.2633,2896619
21.268,2867618
21.2728,2920119
21.2776,2876649
21.2823,2857694
21.2871,2832101
21.2918,2912383
21.2966,2795445
21.3014,2821190
21.3061,2869494
21.3109,2917957
21.3157,2980467
21.3204,2845930
21.3252,2869319
21.3299,2902734
21.3347,2928537
21.3395,2875577
21.3442,2831624
21.349,2927616
21.3538,2849754
21.3585,2844282
21.3633,2799644
21.368,2944419
21.3728,2872215
21.3775,2786012
21.3823,2978561
21.3871,2832807
21.3919,2849358
21.3966,2801124
21.4014,2915565
21.4061,2938446
21.4109,2913314
21.4156,2900910
21.4204,2895613
21.4252,2857745
21.4299,2846507
21.4347,2856206
21.4395,2893185
21.4442,2857339
21.449,2878342
21.4537,2851117
21.4585,2921226
21.4633,2959104
21.468,2912413
21.4728,2848087
21.4776,2888257
21.4823,2897047
21.4871,2953719
21.4918,2841997
21.4966,2827619
