D:\DATA\HAMBERGER\NICK\20230701\20230701_5-26-23_NBenthi_19.D  2 Jul 23  12:46 am
Start of data points
4.09155,2534384
4.09632,2617308
4.10108,2581088
4.10583,2574975
4.1106,2540866
4.11537,2466740
4.12013,2533421
4.12488,2650270
4.12965,2773741
4.13442,2746953
4.13917,2465158
4.14393,2567734
4.1487,2637928
4.15347,2563644
4.15822,2319961
4.16298,2206428
4.16775,2214177
4.1725,2191472
4.17727,2175645
4.18203,2096209
4.1868,2200160
4.19155,2300661
4.19632,2341182
4.20108,2224620
4.20583,2133627
4.2106,2107498
4.21537,2128618
4.22013,2082895
4.22488,1948095
4.22965,1969890
4.23442,2059503
4.23917,2005716
4.24393,2071616
4.2487,1955827
4.25347,1907675
4.25822,1977373
4.26298,1877825
4.26775,1881279
4.2725,1927074
4.27727,1928990
4.28203,2216605
4.2868,2652791
4.29155,2464183
4.29632,1994073
4.30108,1814533
4.30585,1823504
4.3106,1816290
4.31537,1787540
4.32013,1761745
4.32488,1768149
4.32965,1848404
4.33442,1944092
4.33918,1883349
4.34393,1797182
4.3487,1747274
4.35347,1778404
4.35822,1772324
4.36298,1846390
4.36775,1839331
4.37252,1912455
4.37727,2042538
4.38203,1965420
4.3868,1886011
4.39155,1835561
4.39632,1787343
4.40108,1796469
4.40585,1709714
4.4106,1695320
4.41537,1737375
4.42013,1758107
4.42488,1736415
4.42965,1848694
4.43442,1874746
4.43918,1732264
4.44393,1739889
4.4487,1845202
4.45347,1819913
4.45822,1697508
4.46298,1653561
4.46775,1632023
4.47252,1645124
4.47727,1642277
4.48203,1611069
4.4868,1624738
4.49157,1650210
4.49632,1616556
4.50108,1618689
4.50585,1608349
4.5106,1648294
4.51537,1609952
4.52013,1759931
4.5249,1910661
4.52965,1638219
4.53442,1555639
4.53918,1575748
4.54393,1620737
4.5487,1646057
4.55347,1639957
4.55823,1551053
4.56298,1542213
4.56775,1679201
4.57252,1626091
4.57727,1881714
4.58203,2117139
4.5868,2179619
4.59157,2084135
4.59632,1812286
4.60108,1606377
4.60585,1530448
4.6106,1542220
4.61537,1479125
4.62013,1491030
4.6249,1531140
4.62965,1461307
4.63442,1463435
4.63918,1462832
4.64395,1436756
4.6487,1439178
4.65347,1449665
4.65823,1423526
4.66298,1438898
4.66775,1421502
4.67252,1482367
4.67728,1461113
4.68203,1462079
4.6868,1386168
4.69157,1453481
4.69632,1407721
4.70108,1440005
4.70585,1389434
4.71062,1404486
4.71537,1423689
4.72013,1384361
4.7249,1444102
4.72965,1411511
4.73442,1436394
4.73918,1420629
4.74395,1429963
4.7487,1436564
4.75347,1403313
4.75823,1426105
4.76298,1378672
4.76775,1360439
4.77252,1396330
4.77728,1360438
4.78203,1383602
4.7868,1380131
4.79157,1385383
4.79632,1312615
4.80108,1364125
4.80585,1388457
4.81062,1399305
4.81537,1362382
4.82013,1438771
4.8249,1435445
4.82967,1412295
4.83442,1524992
4.83918,1512334
4.84395,1491331
4.8487,1510361
4.85347,1487804
4.85823,1478746
4.863,1478328
4.86775,1546907
4.87252,1534650
4.87728,1519475
4.88203,1501277
4.8868,1512790
4.89157,1543481
4.89633,1502919
4.90108,1568701
4.90585,1524731
4.91062,1496609
4.91537,1482051
4.92013,1468322
4.9249,1488610
4.92967,1439948
4.93442,1504450
4.93918,1573015
4.94395,1533777
4.9487,1466366
4.95347,1435255
4.95823,1468077
4.963,1460495
4.96775,1435965
4.97252,1451990
4.97728,1415657
4.98205,1418472
4.9868,1460230
4.99157,1388030
4.99633,1407435
5.00108,1439486
5.00585,1489281
5.01062,1404378
5.01538,1408223
5.02013,1359505
5.0249,1335199
5.02967,1413673
5.03442,1395665
5.03918,1371473
5.04395,1332350
5.04872,1356554
5.05347,1317396
5.05823,1371824
5.063,1326361
5.06775,1404481
5.07252,1402219
5.07728,1397193
5.08205,1390901
5.0868,1334767
5.09157,1358554
5.09633,1372193
5.10108,1343862
5.10585,1337003
5.11062,1333011
5.11538,1308739
5.12013,1351088
5.1249,1366801
5.12967,1340844
5.13442,1377980
5.13918,1386565
5.14395,1457776
5.14872,1420330
5.15347,1471618
5.15823,1454789
5.163,1538052
5.16777,1508575
5.17252,1452623
5.17728,1458902
5.18205,1412806
5.1868,1502000
5.19157,1496598
5.19633,1455929
5.2011,1468617
5.20585,1528912
5.21062,1430853
5.21538,1455621
5.22013,1465952
5.2249,1446043
5.22967,1456127
5.23443,1457402
5.23918,1521638
5.24395,1513656
5.24872,1463221
5.25347,1456820
5.25823,1589480
5.263,1888345
5.26777,2415267
5.27252,2357640
5.27728,1997685
5.28205,1746588
5.2868,1524434
5.29157,1541248
5.29633,1521848
5.3011,1497402
5.30585,1446696
5.31062,1440123
5.31538,1430882
5.32013,1418123
5.3249,1445020
5.32967,1430255
5.33443,1443134
5.33918,1473094
5.34395,1357273
5.34872,1455921
5.35348,1426264
5.35823,1453366
5.363,1419034
5.36777,1385580
5.37252,1451292
5.37728,1374029
5.38205,1393075
5.38682,1402401
5.39157,1422123
5.39633,1412368
5.4011,1365412
5.40585,1390257
5.41062,1377056
5.41538,1448738
5.42015,1382614
5.4249,1419678
5.42967,1450654
5.43443,1404394
5.43918,1484422
5.44395,1480948
5.44872,1459648
5.45348,1378009
5.45823,1376191
5.463,1297972
5.46777,1385355
5.47252,1381383
5.47728,1342809
5.48205,1384511
5.48682,1363944
5.49157,1327733
5.49633,1319984
5.5011,1377612
5.50587,1335531
5.51062,1366472
5.51538,1407260
5.52015,1397545
5.5249,1380719
5.52967,1359165
5.53443,1356732
5.5392,1337410
5.54395,1321950
5.54872,1357944
5.55348,1348297
5.55823,1279853
5.563,1338729
5.56777,1334990
5.57253,1339399
5.57728,1339153
5.58205,1311531
5.58682,1321252
5.59157,1313586
5.59633,1291454
5.6011,1264461
5.60587,1275967
5.61062,1283756
5.61538,1335989
5.62015,1276221
5.6249,1306580
5.62967,1274501
5.63443,1292076
5.6392,1270950
5.64395,1303320
5.64872,1340951
5.65348,1366493
5.65823,1278321
5.663,1256947
5.66777,1269934
5.67253,1278455
5.67728,1256623
5.68205,1296075
5.68682,1290671
5.69158,1288432
5.69633,1259553
5.7011,1283471
5.70587,1259052
5.71062,1316209
5.71538,1243908
5.72015,1313065
5.72492,1288323
5.72967,1303303
5.73443,1323103
5.7392,1268885
5.74395,1283210
5.74872,1287754
5.75348,1332626
5.75825,1231529
5.763,1296257
5.76777,1303976
5.77253,1344383
5.77728,1462125
5.78205,2215656
5.78682,2874213
5.79158,3118004
5.79633,3023481
5.8011,3063067
5.80587,2954729
5.81062,2969375
5.81538,2839771
5.82015,2749739
5.82492,2781529
5.82967,2708318
5.83443,2548165
5.8392,2578467
5.84397,2523122
5.84872,2405339
5.85348,2362039
5.85825,2346198
5.863,2478758
5.86777,2263358
5.87253,2192598
5.8773,2174746
5.88205,2180128
5.88682,2061271
5.89158,2088886
5.89633,2055190
5.9011,1999977
5.90587,1906341
5.91063,1969064
5.91538,1960540
5.92015,1865531
5.92492,1883151
5.92967,1841795
5.93443,1782079
5.9392,1758061
5.94397,1714638
5.94872,1734873
5.95348,1709983
5.95825,1939152
5.963,2252435
5.96777,2381476
5.97253,2253143
5.9773,2061786
5.98205,1889997
5.98682,1742152
5.99158,1654017
5.99633,1616151
6.0011,1653745
6.00587,1571172
6.01063,1535475
6.01538,1535679
6.02015,1575192
6.02492,1534051
6.02968,1554361
6.03443,1566999
6.0392,1460682
6.04397,1424050
6.04872,1471542
6.05348,1509993
6.05825,1477657
6.06302,1491977
6.06777,1405001
6.07253,1377777
6.0773,1439339
6.08205,1487136
6.08682,1544549
6.09158,1543063
6.09635,1576965
6.1011,1493576
6.10587,1418250
6.11063,1419191
6.11538,1423162
6.12015,1390594
6.12492,1336406
6.12968,1316434
6.13443,1278154
6.1392,1274554
6.14397,1300183
6.14872,1292701
6.15348,1293980
6.15825,1338401
6.16302,1350001
6.16777,1507768
6.17253,1399999
6.1773,1435916
6.18205,1449362
6.18682,1373399
6.19158,1367597
6.19635,1322990
6.2011,1346854
6.20587,1292842
6.21063,1309786
6.2154,1334769
6.22015,1370051
6.22492,1354095
6.22968,1313168
6.23443,1252007
6.2392,1282853
6.24397,1291836
6.24873,1244418
6.25348,1286537
6.25825,1274337
6.26302,1263667
6.26777,1232992
6.27253,1275558
6.2773,1243544
6.28207,1271129
6.28682,1271351
6.29158,1210822
6.29635,1226328
6.3011,1195253
6.30587,1176116
6.31063,1178896
6.3154,1192765
6.32015,1178234
6.32492,1208950
6.32968,1246561
6.33443,1221503
6.3392,1198143
6.34397,1207186
6.34873,1230953
6.35348,1174379
6.35825,1219460
6.36302,1205697
6.36778,1188205
6.37253,1178742
6.3773,1163557
6.38207,1149906
6.38682,1172319
6.39158,1121191
6.39635,1139201
6.40112,1178554
6.40587,1188536
6.41063,1250792
6.4154,1296371
6.42015,1310488
6.42492,1298307
6.42968,1289847
6.43445,1248485
6.4392,1182729
6.44397,1196164
6.44873,1166394
6.45348,1154243
6.45825,1118902
6.46302,1167093
6.46778,1110907
6.47253,1133864
6.4773,1138235
6.48207,1181479
6.48682,1115727
6.49158,1076907
6.49635,1093741
6.50112,1102536
6.50587,1078426
6.51063,1117778
6.5154,1072831
6.52015,1079143
6.52492,1078444
6.52968,1127257
6.53445,1092172
6.5392,1101178
6.54397,1153518
6.54873,1056333
6.5535,1103719
6.55825,1107725
6.56302,1060605
6.56778,1063849
6.57253,1074384
6.5773,1044193
6.58207,1048760
6.58683,1062526
6.59158,1057676
6.59635,1122260
6.60112,1081375
6.60587,1063837
6.61063,1084137
6.6154,1049428
6.62017,1033454
6.62492,1046876
6.62968,1076119
6.63445,1035623
6.6392,1013311
6.64397,1036034
6.64873,1091195
6.6535,1028185
6.65825,1065025
6.66302,1057378
6.66778,1053330
6.67253,1057630
6.6773,1049158
6.68207,1059346
6.68683,1048239
6.69158,1069722
6.69635,1053502
6.70112,1018131
6.70588,1039179
6.71063,1035956
6.7154,1045280
6.72017,1002729
6.72492,1007768
6.72968,1016405
6.73445,1039748
6.73922,1034414
6.74397,1035062
6.74873,1035957
6.7535,1055859
6.75825,1049355
6.76302,1038732
6.76778,1011430
6.77255,1029737
6.7773,1012119
6.78207,962444
6.78683,1009087
6.79158,1049848
6.79635,1058568
6.80112,1010544
6.80588,1013270
6.81063,1021817
6.8154,1037586
6.82017,1048061
6.82492,1042234
6.82968,1129173
6.83445,1257069
6.83922,1406996
6.84397,1527467
6.84873,1524120
6.8535,1396589
6.85825,1220170
6.86302,1132026
6.86778,1093086
6.87255,1028416
6.8773,1003401
6.88207,1034599
6.88683,973266
6.8916,1031742
6.89635,1011429
6.90112,1048780
6.90588,1034536
6.91063,1023736
6.9154,1024069
6.92017,936306
6.92493,966723
6.92968,1032999
6.93445,951858
6.93922,994694
6.94397,963499
6.94873,992818
6.9535,951750
6.95827,955534
6.96302,944093
6.96778,969873
6.97255,980229
6.9773,971266
6.98207,953877
6.98683,975522
6.9916,978308
6.99635,940329
7.00112,938548
7.00588,928308
7.01063,933083
7.0154,918483
7.02017,970828
7.02493,968750
7.02968,954143
7.03445,901013
7.03922,928043
7.04397,942300
7.04873,947845
7.0535,935718
7.05827,914330
7.06302,909925
7.06778,915937
7.07255,897956
7.07732,910500
7.08207,920599
7.08683,954627
7.0916,884312
7.09635,881792
7.10112,894827
7.10588,856179
7.11065,927493
7.1154,861572
7.12017,861714
7.12493,892029
7.12968,856137
7.13445,867243
7.13922,842103
7.14398,882800
7.14873,892518
7.1535,858905
7.15827,863319
7.16302,872660
7.16778,874527
7.17255,879922
7.17732,860938
7.18207,860492
7.18683,878852
7.1916,856928
7.19635,822920
7.20112,857926
7.20588,858360
7.21065,829913
7.2154,845023
7.22017,850808
7.22493,873251
7.2297,856123
7.23445,823230
7.23922,841396
7.24398,859733
7.24873,869377
7.2535,828520
7.25827,832424
7.26303,870762
7.26778,852803
7.27255,883725
7.27732,818695
7.28207,806024
7.28683,785160
7.2916,832380
7.29637,824532
7.30112,833349
7.30588,792022
7.31065,838458
7.3154,823450
7.32017,798859
7.32493,833044
7.3297,860487
7.33445,853566
7.33922,845611
7.34398,850203
7.34873,837840
7.3535,822018
7.35827,838702
7.36303,836378
7.36778,838666
7.37255,806662
7.37732,825588
7.38207,769892
7.38683,822653
7.3916,789706
7.39637,824561
7.40112,807436
7.40588,775401
7.41065,803112
7.41542,810592
7.42017,797162
7.42493,777826
7.4297,791296
7.43445,786864
7.43922,798117
7.44398,789174
7.44875,804810
7.4535,820843
7.45827,834995
7.46303,782398
7.46778,798011
7.47255,751378
7.47732,777224
7.48208,792575
7.48683,797267
7.4916,790442
7.49637,758384
7.50112,774793
7.50588,748649
7.51065,775628
7.51542,807174
7.52017,801476
7.52493,788376
7.5297,838335
7.53445,849467
7.53922,916828
7.54398,950051
7.54875,1003611
7.5535,991836
7.55827,885404
7.56303,894518
7.5678,853046
7.57255,759496
7.57732,773601
7.58208,768054
7.58683,803822
7.5916,751021
7.59637,754659
7.60113,769930
7.60588,771716
7.61065,782408
7.61542,796017
7.62017,772542
7.62493,836885
7.6297,760303
7.63447,767289
7.63922,752442
7.64398,742405
7.64875,757496
7.6535,742334
7.65827,722652
7.66303,748875
7.6678,761950
7.67255,771455
7.67732,785244
7.68208,720613
7.68683,726409
7.6916,780632
7.69637,739876
7.70113,741024
7.70588,726341
7.71065,734372
7.71542,759822
7.72017,725069
7.72493,725706
7.7297,738108
7.73447,757443
7.73922,724172
7.74398,737941
7.74875,717264
7.75352,718439
7.75827,735777
7.76303,694057
7.7678,739657
7.77255,734259
7.77732,717586
7.78208,725830
7.78685,737350
7.7916,755829
7.79637,737833
7.80113,744716
7.80588,725471
7.81065,773037
7.81542,725526
7.82018,722067
7.82493,767832
7.8297,709651
7.83447,732840
7.83922,784841
7.84398,735311
7.84875,660481
7.85352,730615
7.85827,693282
7.86303,718382
7.8678,676136
7.87255,701737
7.87732,691472
7.88208,702432
7.88685,706920
7.8916,697178
7.89637,681477
7.90113,706876
7.90588,679874
7.91065,711026
7.91542,710652
7.92018,771869
7.92493,782910
7.9297,873422
7.93447,875404
7.93923,924788
7.94398,881443
7.94875,870638
7.95352,801573
7.95827,784330
7.96303,737742
7.9678,708681
7.97257,724746
7.97732,709664
7.98208,720756
7.98685,718247
7.9916,727106
7.99637,716873
8.00113,711302
8.0059,690507
8.01065,669211
8.01542,724364
8.02018,694601
8.02493,754973
8.0297,741772
8.03447,742278
8.03923,709310
8.04398,705717
8.04875,713646
8.05352,724038
8.05827,723036
8.06303,781769
8.0678,833354
8.07257,927721
8.07732,1038041
8.08208,1027766
8.08685,1071766
8.09162,942485
8.09637,861099
8.10113,803261
8.1059,742821
8.11065,725080
8.11542,716836
8.12018,716692
8.12495,737847
8.1297,734798
8.13447,718914
8.13923,741919
8.14398,734293
8.14875,681636
8.15352,707020
8.15828,685506
8.16303,693610
8.1678,677273
8.17257,674279
8.17732,681851
8.18208,664500
8.18685,661157
8.19162,667454
8.19637,674717
8.20113,662472
8.2059,664573
8.21065,658677
8.21542,635461
8.22018,677065
8.22495,680671
8.2297,668535
8.23447,692302
8.23923,666421
8.24398,638315
8.24875,661634
8.25352,655202
8.25828,664077
8.26303,644473
8.2678,641888
8.27257,667676
8.27733,654843
8.28208,612933
8.28685,636234
8.29162,620290
8.29637,634216
8.30113,650324
8.3059,631835
8.31067,624208
8.31542,637832
8.32018,617367
8.32495,645863
8.3297,630448
8.33447,638160
8.33923,638540
8.344,653794
8.34875,657604
8.35352,642437
8.35828,660233
8.36303,655556
8.3678,661192
8.37257,634244
8.37733,668208
8.38208,604461
8.38685,607749
8.39162,610869
8.39637,638331
8.40113,633622
8.4059,610675
8.41067,606017
8.41542,610491
8.42018,622333
8.42495,630615
8.42972,641904
8.43447,613470
8.43923,657076
8.444,603033
8.44875,599657
8.45352,586436
8.45828,593896
8.46305,635049
8.4678,619951
8.47257,621020
8.47733,610758
8.48208,643232
8.48685,603252
8.49162,625432
8.49638,642427
8.50113,617060
8.5059,621258
8.51067,618619
8.51542,627389
8.52018,651971
8.52495,605830
8.52972,590016
8.53447,588426
8.53923,641250
8.544,636317
8.54875,609937
8.55352,589000
8.55828,587014
8.56305,588857
8.5678,591423
8.57257,600143
8.57733,605367
8.58208,592057
8.58685,579294
8.59162,601855
8.59638,614410
8.60113,612276
8.6059,597213
8.61067,567900
8.61543,563115
8.62018,619685
8.62495,631235
8.62972,607154
8.63447,621087
8.63923,575258
8.644,598747
8.64877,595165
8.65352,598633
8.65828,602455
8.66305,574627
8.6678,615898
8.67257,585795
8.67733,600540
8.6821,576699
8.68685,562245
8.69162,604672
8.69638,591501
8.70113,584570
8.7059,643959
8.71067,607566
8.71543,627011
8.72018,609309
8.72495,599894
8.72972,613638
8.73447,597809
8.73923,580375
8.744,599786
8.74877,548868
8.75352,551795
8.75828,561251
8.76305,584660
8.7678,563903
8.77257,595276
8.77733,599058
8.7821,547392
8.78685,574659
8.79162,592702
8.79638,576046
8.80115,586859
8.8059,568777
8.81067,580762
8.81543,584317
8.82018,688132
8.82495,583566
8.82972,560050
8.83448,588399
8.83923,560892
8.844,542259
8.84877,587482
8.85352,539572
8.85828,542790
8.86305,557421
8.86782,547564
8.87257,571646
8.87733,562100
8.8821,594713
8.88685,582140
8.89162,564021
8.89638,570059
8.90115,583931
8.9059,591794
8.91067,558367
8.91543,567993
8.92018,568412
8.92495,574207
8.92972,546334
8.93448,560995
8.93923,546543
8.944,560532
8.94877,537828
8.95353,577642
8.95828,585114
8.96305,575231
8.96782,572029
8.97257,563524
8.97733,577331
8.9821,577151
8.98687,577152
8.99162,561099
8.99638,598600
9.00115,615775
9.0059,664766
9.01067,658708
9.01543,698488
9.0202,647944
9.02495,661702
9.02972,644755
9.03448,650108
9.03923,590534
9.044,591003
9.04877,569956
9.05353,602738
9.05828,570353
9.06305,555799
9.06782,562503
9.07257,565244
9.07733,555235
9.0821,553651
9.08687,551728
9.09162,571991
9.09638,552843
9.10115,524081
9.1059,515290
9.11067,530781
9.11543,499052
9.1202,574059
9.12495,529882
9.12972,591060
9.13448,569330
9.13925,565331
9.144,594245
9.14877,665676
9.15353,619195
9.15828,653216
9.16305,604155
9.16782,590658
9.17258,582998
9.17733,541593
9.1821,580112
9.18687,561586
9.19162,546781
9.19638,544047
9.20115,534355
9.20592,511840
9.21067,542814
9.21543,557444
9.2202,556126
9.22495,552263
9.22972,520654
9.23448,532641
9.23925,549737
9.244,518717
9.24877,534159
9.25353,520498
9.25828,514823
9.26305,505023
9.26782,519539
9.27258,528189
9.27733,528798
9.2821,535366
9.28687,533806
9.29163,530880
9.29638,510749
9.30115,500480
9.30592,535494
9.31067,519345
9.31543,540767
9.3202,537499
9.32497,557969
9.32972,550160
9.33448,499379
9.33925,558258
9.344,540880
9.34877,555384
9.35353,543207
9.3583,563387
9.36305,542448
9.36782,555108
9.37258,565297
9.37733,523008
9.3821,544926
9.38687,562794
9.39163,542677
9.39638,552167
9.40115,565558
9.40592,566240
9.41067,563215
9.41543,560645
9.4202,549800
9.42497,541457
9.42972,538071
9.43448,551597
9.43925,528967
9.444,522351
9.44877,508564
9.45353,510795
9.4583,491588
9.46305,531692
9.46782,499017
9.47258,531580
9.47735,522290
9.4821,479759
9.48687,492493
9.49163,509021
9.49638,536827
9.50115,495633
9.50592,516463
9.51068,525445
9.51543,535715
9.5202,493993
9.52497,516020
9.52972,517072
9.53448,519795
9.53925,502775
9.54402,498686
9.54877,515651
9.55353,485679
9.5583,491725
9.56305,508047
9.56782,540067
9.57258,525533
9.57735,520816
9.5821,575048
9.58687,525067
9.59163,546453
9.59638,580953
9.60115,536389
9.60592,533146
9.61068,566119
9.61543,554583
9.6202,541529
9.62497,526459
9.62973,603607
9.63448,575610
9.63925,590280
9.64402,561850
9.64877,551173
9.65353,528583
9.6583,536306
9.66307,524314
9.66782,528872
9.67258,506099
9.67735,525762
9.6821,521408
9.68687,515500
9.69163,520539
9.6964,483578
9.70115,513318
9.70592,496054
9.71068,483099
9.71543,469126
9.7202,503111
9.72497,521730
9.72973,474681
9.73448,508472
9.73925,486105
9.74402,527646
9.74877,525047
9.75353,524717
9.7583,498374
9.76307,500976
9.76782,490653
9.77258,469348
9.77735,503448
9.7821,485526
9.78687,513881
9.79163,509755
9.7964,452789
9.80115,477040
9.80592,506460
9.81068,496147
9.81545,504054
9.8202,474723
9.82497,504489
9.82973,540629
9.83448,498297
9.83925,500233
9.84402,473019
9.84878,482670
9.85353,463066
9.8583,493740
9.86307,505057
9.86782,486996
9.87258,481423
9.87735,510920
9.88212,482577
9.88687,512705
9.89163,496244
9.8964,535856
9.90115,484696
9.90592,483009
9.91068,496214
9.91545,493423
9.9202,463082
9.92497,481661
9.92973,490688
9.93448,502484
9.93925,528423
9.94402,588406
9.94878,633989
9.95353,646315
9.9583,681953
9.96307,762407
9.96782,732145
9.97258,757619
9.97735,743452
9.98212,800702
9.98687,808712
9.99163,789718
9.9964,791298
10.0012,744961
10.0059,704073
10.0107,676851
10.0155,639855
10.0202,566332
10.025,539446
10.0297,563585
10.0345,531772
10.0393,519127
10.044,522669
10.0488,545258
10.0535,495459
10.0583,517449
10.0631,510225
10.0678,511037
10.0726,486797
10.0774,561687
10.0821,533581
10.0869,520143
10.0916,557880
10.0964,514247
10.1012,543907
10.1059,537222
10.1107,558726
10.1155,592143
10.1202,631790
10.125,650626
10.1297,700007
10.1345,673101
10.1393,683404
10.144,658578
10.1488,635880
10.1536,594367
10.1583,570893
10.1631,573676
10.1678,509579
10.1726,498527
10.1774,511767
10.1821,542297
10.1869,541748
10.1916,544761
10.1964,533746
10.2012,574796
10.2059,582367
10.2107,594793
10.2155,624702
10.2202,612756
10.225,560155
10.2297,580641
10.2345,567989
10.2393,558121
10.244,525878
10.2488,524689
10.2536,529924
10.2583,543943
10.2631,519052
10.2678,528870
10.2726,532861
10.2774,516863
10.2821,501248
10.2869,517082
10.2916,491570
10.2964,482066
10.3012,496865
10.3059,504964
10.3107,504766
10.3155,502948
10.3202,521468
10.325,533755
10.3297,523182
10.3345,494606
10.3393,489751
10.344,504931
10.3488,502469
10.3536,482879
10.3583,493924
10.3631,500164
10.3678,498007
10.3726,500270
10.3774,523632
10.3821,498641
10.3869,505472
10.3916,496135
10.3964,493034
10.4012,504312
10.4059,479563
10.4107,490727
10.4155,483687
10.4202,520703
10.425,527785
10.4297,506833
10.4345,532800
10.4393,508668
10.444,532979
10.4488,522708
10.4536,495197
10.4583,530897
10.4631,501630
10.4678,500416
10.4726,517038
10.4774,516929
10.4821,489675
10.4869,505890
10.4917,526323
10.4964,586223
10.5012,615348
10.5059,698091
10.5107,669316
10.5155,696940
10.5202,675588
10.525,646976
10.5297,587849
10.5345,570396
10.5393,543655
10.544,517759
10.5488,512832
10.5536,495510
10.5583,544844
10.5631,490839
10.5678,508238
10.5726,501057
10.5774,519107
10.5821,539846
10.5869,531811
10.5917,541644
10.5964,551247
10.6012,517978
10.6059,557688
10.6107,510970
10.6155,549740
10.6202,519474
10.625,525999
10.6297,521563
10.6345,514185
10.6393,499615
10.644,510084
10.6488,512373
10.6536,489188
10.6583,492602
10.6631,479514
10.6678,480467
10.6726,494551
10.6774,509289
10.6821,524683
10.6869,509021
10.6917,520217
10.6964,550190
10.7012,570469
10.7059,599512
10.7107,627713
10.7155,613776
10.7202,569967
10.725,614299
10.7297,581800
10.7345,543058
10.7393,545744
10.744,535773
10.7488,569973
10.7536,579941
10.7583,570446
10.7631,564070
10.7678,634483
10.7726,638457
10.7774,693906
10.7821,679943
10.7869,708620
10.7917,681036
10.7964,649982
10.8012,619274
10.8059,573100
10.8107,562281
10.8155,556589
10.8202,560027
10.825,537926
10.8297,531444
10.8345,541506
10.8393,560523
10.844,566248
10.8488,535862
10.8536,564386
10.8583,569555
10.8631,543358
10.8678,581982
10.8726,550614
10.8774,523782
10.8821,518595
10.8869,563820
10.8917,545788
10.8964,559485
10.9012,549065
10.9059,512458
10.9107,558205
10.9155,553011
10.9202,554607
10.925,547075
10.9298,545895
10.9345,571494
10.9393,595076
10.944,550933
10.9488,575228
10.9536,609896
10.9583,610288
10.9631,611292
10.9678,651673
10.9726,696717
10.9774,652467
10.9821,679842
10.9869,653355
10.9917,605636
10.9964,621872
11.0012,602260
11.0059,564199
11.0107,575560
11.0155,582237
11.0202,589645
11.025,609118
11.0298,590813
11.0345,649442
11.0393,648327
11.044,620811
11.0488,641893
11.0536,605186
11.0583,627015
11.0631,582917
11.0678,585121
11.0726,571345
11.0774,613982
11.0821,586697
11.0869,593810
11.0917,581254
11.0964,578565
11.1012,609685
11.1059,578495
11.1107,586776
11.1155,616871
11.1202,590339
11.125,601748
11.1298,581423
11.1345,569836
11.1393,579558
11.144,583475
11.1488,540604
11.1536,540881
11.1583,552873
11.1631,553566
11.1678,558160
11.1726,536550
11.1774,561175
11.1821,522810
11.1869,540363
11.1917,539866
11.1964,537231
11.2012,532297
11.2059,524897
11.2107,541228
11.2155,520178
11.2202,529830
11.225,542584
11.2298,557941
11.2345,565943
11.2393,603178
11.244,594090
11.2488,613673
11.2536,660570
11.2583,651844
11.2631,641584
11.2679,590270
11.2726,581230
11.2774,568596
11.2821,545472
11.2869,560466
11.2917,583102
11.2964,541973
11.3012,587089
11.3059,575093
11.3107,551613
11.3155,576918
11.3202,547677
11.325,566155
11.3298,551352
11.3345,566727
11.3393,568273
11.344,549393
11.3488,555412
11.3536,535829
11.3583,556517
11.3631,505584
11.3679,561029
11.3726,531940
11.3774,533304
11.3821,532039
11.3869,556927
11.3917,538072
11.3964,534968
11.4012,567481
11.4059,543907
11.4107,565232
11.4155,538534
11.4202,586530
11.425,584403
11.4298,550756
11.4345,575631
11.4393,579718
11.444,567331
11.4488,576798
11.4536,575524
11.4583,576264
11.4631,561522
11.4679,573191
11.4726,607500
11.4774,584927
11.4821,680712
11.4869,722372
11.4917,839093
11.4964,899012
11.5012,899684
11.5059,774922
11.5107,721640
11.5155,657591
11.5202,593265
11.525,564208
11.5298,573012
11.5345,555411
11.5393,558498
11.544,583706
11.5488,595938
11.5536,573209
11.5583,571279
11.5631,580728
11.5679,573769
11.5726,552086
11.5774,564049
11.5821,528830
11.5869,548869
11.5917,560998
11.5964,584595
11.6012,590424
11.606,605483
11.6107,598816
11.6155,589796
11.6202,610851
11.625,558991
11.6298,546319
11.6345,592176
11.6393,567056
11.644,547542
11.6488,561902
11.6536,547867
11.6583,588366
11.6631,664043
11.6679,686517
11.6726,718338
11.6774,719938
11.6821,695762
11.6869,632301
11.6917,607545
11.6964,615532
11.7012,598894
11.706,651296
11.7107,711424
11.7155,736120
11.7202,687917
11.725,656781
11.7298,606189
11.7345,595500
11.7393,596369
11.744,552021
11.7488,569461
11.7536,578788
11.7583,577712
11.7631,582970
11.7679,590111
11.7726,633512
11.7774,699595
11.7821,807166
11.7869,839762
11.7917,839804
11.7964,796412
11.8012,777250
11.806,743230
11.8107,704356
11.8155,684181
11.8202,654559
11.825,617775
11.8298,645097
11.8345,580186
11.8393,582805
11.844,598335
11.8488,625357
11.8536,605085
11.8583,639978
11.8631,593331
11.8679,603817
11.8726,589434
11.8774,599158
11.8821,621329
11.8869,603995
11.8917,626755
11.8964,619594
11.9012,619687
11.906,598951
11.9107,581002
11.9155,583487
11.9202,578886
11.925,581994
11.9298,555811
11.9345,554795
11.9393,574672
11.9441,571104
11.9488,593678
11.9536,580274
11.9583,584180
11.9631,562154
11.9679,585745
11.9726,583527
11.9774,561571
11.9821,584417
11.9869,539796
11.9917,557461
11.9964,566350
12.0012,564294
12.006,618263
12.0107,554403
12.0155,591320
12.0202,609219
12.025,591919
12.0298,606471
12.0345,606466
12.0393,593588
12.0441,602872
12.0488,566342
12.0536,577237
12.0583,578269
12.0631,601613
12.0679,590811
12.0726,599588
12.0774,595559
12.0821,572865
12.0869,618466
12.0917,568767
12.0964,592731
12.1012,603689
12.106,625364
12.1107,677658
12.1155,784561
12.1202,811705
12.125,872619
12.1298,867827
12.1345,840702
12.1393,798530
12.1441,735710
12.1488,672915
12.1536,661765
12.1583,627762
12.1631,623639
12.1679,640117
12.1726,603694
12.1774,632854
12.1821,684919
12.1869,650381
12.1917,636877
12.1964,625832
12.2012,657484
12.206,647916
12.2107,624089
12.2155,553668
12.2202,637389
12.225,630380
12.2298,613926
12.2345,614258
12.2393,594354
12.2441,598850
12.2488,613256
12.2536,578592
12.2583,580155
12.2631,580580
12.2679,616733
12.2726,551760
12.2774,574509
12.2822,608999
12.2869,621564
12.2917,735649
12.2964,1126195
12.3012,2134707
12.306,4301978
12.3107,7621138
12.3155,11013854
12.3202,12765548
12.325,12281772
12.3298,8950362
12.3345,5758247
12.3393,3180417
12.3441,1759526
12.3488,1184498
12.3536,918538
12.3583,784043
12.3631,736276
12.3679,759669
12.3726,714810
12.3774,715623
12.3822,730002
12.3869,721179
12.3917,749357
12.3964,719407
12.4012,706463
12.406,704492
12.4107,708247
12.4155,684626
12.4202,724989
12.425,694106
12.4298,708958
12.4345,693342
12.4393,758752
12.4441,777426
12.4488,852824
12.4536,877352
12.4583,855859
12.4631,784412
12.4679,768561
12.4726,726970
12.4774,738416
12.4822,839315
12.4869,854679
12.4917,865417
12.4964,842726
12.5012,829687
12.506,792239
12.5107,770901
12.5155,758945
12.5202,725501
12.525,672469
12.5298,661224
12.5345,685876
12.5393,692081
12.5441,697583
12.5488,719453
12.5536,663839
12.5583,718468
12.5631,677776
12.5679,670630
12.5726,677412
12.5774,660151
12.5822,665706
12.5869,716091
12.5917,686941
12.5964,703057
12.6012,730593
12.606,758818
12.6107,811212
12.6155,878015
12.6203,967902
12.625,1006859
12.6298,1055154
12.6345,955775
12.6393,872503
12.6441,839772
12.6488,782361
12.6536,709486
12.6583,711476
12.6631,702352
12.6679,694458
12.6726,719962
12.6774,804637
12.6822,894971
12.6869,1003564
12.6917,1043006
12.6964,1037020
12.7012,939987
12.706,877261
12.7107,760917
12.7155,713950
12.7203,712912
12.725,675240
12.7298,651536
12.7345,672190
12.7393,666563
12.7441,674869
12.7488,688092
12.7536,635255
12.7583,619584
12.7631,671437
12.7679,659372
12.7726,663742
12.7774,669508
12.7822,696666
12.7869,704575
12.7917,694543
12.7964,717443
12.8012,711926
12.806,712154
12.8107,678524
12.8155,692986
12.8203,672195
12.825,694047
12.8298,689119
12.8345,650471
12.8393,686431
12.8441,662166
12.8488,650791
12.8536,678345
12.8583,661753
12.8631,646400
12.8679,671205
12.8726,674357
12.8774,698207
12.8822,679664
12.8869,672019
12.8917,686651
12.8964,667396
12.9012,681800
12.906,702099
12.9107,707839
12.9155,702166
12.9203,690987
12.925,656076
12.9298,680897
12.9345,666884
12.9393,649885
12.9441,634504
12.9488,628693
12.9536,636383
12.9584,638588
12.9631,630753
12.9679,668864
12.9726,667174
12.9774,652563
12.9822,660918
12.9869,677138
12.9917,664582
12.9964,646655
13.0012,664740
13.006,667230
13.0107,688848
13.0155,678904
13.0203,681373
13.025,669738
13.0298,678230
13.0345,690655
13.0393,702580
13.0441,664203
13.0488,697239
13.0536,687071
13.0584,758331
13.0631,899915
13.0679,1036065
13.0726,1160505
13.0774,1225370
13.0822,1135961
13.0869,1026237
13.0917,924871
13.0964,809999
13.1012,767464
13.106,693106
13.1107,704682
13.1155,670856
13.1203,714217
13.125,730755
13.1298,736529
13.1345,791288
13.1393,741879
13.1441,771065
13.1488,757116
13.1536,750181
13.1584,703856
13.1631,753738
13.1679,772898
13.1726,743505
13.1774,735273
13.1822,751448
13.1869,725695
13.1917,754419
13.1964,784727
13.2012,874519
13.206,943105
13.2107,927054
13.2155,1020641
13.2203,944727
13.225,823822
13.2298,716665
13.2345,770930
13.2393,661016
13.2441,717896
13.2488,676342
13.2536,683998
13.2584,694485
13.2631,697106
13.2679,705656
13.2726,768204
13.2774,691060
13.2822,708683
13.2869,664713
13.2917,708572
13.2965,678157
13.3012,663798
13.306,687277
13.3107,726518
13.3155,695677
13.3203,710150
13.325,657013
13.3298,670238
13.3345,675990
13.3393,661780
13.3441,698628
13.3488,676851
13.3536,673957
13.3584,695734
13.3631,670343
13.3679,662310
13.3726,670267
13.3774,685044
13.3822,659235
13.3869,695279
13.3917,646338
13.3965,661693
13.4012,667665
13.406,705315
13.4107,679970
13.4155,724163
13.4203,746700
13.425,806659
13.4298,823312
13.4345,818213
13.4393,812640
13.4441,806985
13.4488,761570
13.4536,732105
13.4584,727335
13.4631,729900
13.4679,695280
13.4726,715211
13.4774,742159
13.4822,726850
13.4869,715515
13.4917,748429
13.4965,802242
13.5012,902761
13.506,902279
13.5107,952925
13.5155,969930
13.5203,928326
13.525,846223
13.5298,786517
13.5345,742654
13.5393,685428
13.5441,711644
13.5488,688896
13.5536,689494
13.5584,687524
13.5631,714713
13.5679,689935
13.5726,704117
13.5774,711404
13.5822,715377
13.5869,710078
13.5917,715945
13.5965,682263
13.6012,715668
13.606,672697
13.6107,691148
13.6155,685427
13.6203,721170
13.625,752346
13.6298,735465
13.6346,756443
13.6393,740374
13.6441,734872
13.6488,742470
13.6536,738523
13.6584,716998
13.6631,711419
13.6679,714233
13.6726,720257
13.6774,676296
13.6822,682539
13.6869,689263
13.6917,678362
13.6965,698029
13.7012,664904
13.706,662931
13.7107,678505
13.7155,706707
13.7203,678893
13.725,714123
13.7298,668144
13.7346,703864
13.7393,727767
13.7441,772180
13.7488,823776
13.7536,943530
13.7584,1020376
13.7631,1138195
13.7679,1092610
13.7726,998278
13.7774,895625
13.7822,778235
13.7869,761431
13.7917,724949
13.7965,665333
13.8012,699027
13.806,713214
13.8107,694797
13.8155,658445
13.8203,708521
13.825,703695
13.8298,695588
13.8346,705059
13.8393,673850
13.8441,671121
13.8488,703183
13.8536,688900
13.8584,707813
13.8631,725502
13.8679,822305
13.8726,895672
13.8774,884037
13.8822,881275
13.8869,882538
13.8917,805355
13.8965,856090
13.9012,881148
13.906,880941
13.9107,898539
13.9155,873965
13.9203,841688
13.925,782277
13.9298,746491
13.9346,751784
13.9393,774456
13.9441,720348
13.9488,746116
13.9536,760185
13.9584,797339
13.9631,756681
13.9679,786006
13.9727,752017
13.9774,764341
13.9822,812331
13.9869,880678
13.9917,908406
13.9965,888610
14.0012,893542
14.006,786874
14.0107,730229
14.0155,736228
14.0203,750066
14.025,762019
14.0298,794187
14.0346,812229
14.0393,921959
14.0441,1148271
14.0488,1495053
14.0536,1786025
14.0584,2011324
14.0631,1944935
14.0679,1600110
14.0727,1285395
14.0774,1040061
14.0822,875149
14.0869,820422
14.0917,818622
14.0965,793713
14.1012,789897
14.106,769692
14.1107,724197
14.1155,771109
14.1203,730490
14.125,766681
14.1298,752246
14.1346,784211
14.1393,829163
14.1441,845249
14.1488,940521
14.1536,985468
14.1584,1038485
14.1631,1013194
14.1679,968135
14.1727,933320
14.1774,838042
14.1822,812678
14.1869,764396
14.1917,787460
14.1965,827535
14.2012,864074
14.206,967219
14.2107,959818
14.2155,934379
14.2203,952946
14.225,988084
14.2298,1174418
14.2346,1432609
14.2393,1697245
14.2441,1751114
14.2488,1585870
14.2536,1344741
14.2584,1091330
14.2631,1012881
14.2679,945031
14.2727,895445
14.2774,874716
14.2822,843648
14.2869,794221
14.2917,812470
14.2965,801645
14.3012,755872
14.306,755957
14.3108,783756
14.3155,785603
14.3203,836538
14.325,810907
14.3298,843784
14.3346,812277
14.3393,862090
14.3441,865868
14.3488,842820
14.3536,793313
14.3584,811374
14.3631,875671
14.3679,938578
14.3727,1080045
14.3774,1215812
14.3822,1473024
14.3869,1696507
14.3917,1791497
14.3965,1933947
14.4012,1902203
14.406,1747428
14.4108,1495432
14.4155,1270092
14.4203,1066778
14.425,947638
14.4298,889371
14.4346,919584
14.4393,856436
14.4441,845126
14.4488,890318
14.4536,879295
14.4584,857885
14.4631,845934
14.4679,850728
14.4727,874080
14.4774,831039
14.4822,815457
14.4869,867501
14.4917,905711
14.4965,921119
14.5012,884989
14.506,869589
14.5108,821537
14.5155,839007
14.5203,864028
14.525,851140
14.5298,877192
14.5346,867913
14.5393,899538
14.5441,829963
14.5488,818460
14.5536,828494
14.5584,829840
14.5631,817243
14.5679,788053
14.5727,817294
14.5774,816289
14.5822,857074
14.5869,796685
14.5917,830956
14.5965,838707
14.6012,816963
14.606,841496
14.6108,819688
14.6155,804978
14.6203,781971
14.625,803535
14.6298,823020
14.6346,783832
14.6393,823168
14.6441,806749
14.6489,825380
14.6536,834463
14.6584,801570
14.6631,836083
14.6679,850663
14.6727,857458
14.6774,866685
14.6822,827119
14.6869,863239
14.6917,850510
14.6965,790137
14.7012,829883
14.706,841024
14.7108,814768
14.7155,794530
14.7203,800066
14.725,834750
14.7298,850089
14.7346,850049
14.7393,897870
14.7441,1063407
14.7489,1295194
14.7536,1315416
14.7584,1433195
14.7631,1377947
14.7679,1220328
14.7727,1052778
14.7774,957553
14.7822,885848
14.7869,874387
14.7917,844911
14.7965,818451
14.8012,813618
14.806,790243
14.8108,789794
14.8155,819989
14.8203,833305
14.825,819041
14.8298,823224
14.8346,815928
14.8393,829368
14.8441,797435
14.8489,845278
14.8536,822014
14.8584,786105
14.8631,806930
14.8679,814757
14.8727,811495
14.8774,785311
14.8822,777615
14.8869,784583
14.8917,802805
14.8965,819104
14.9012,795281
14.906,769172
14.9108,775437
14.9155,805480
14.9203,832582
14.925,809671
14.9298,851569
14.9346,805225
14.9393,843018
14.9441,803488
14.9489,781602
14.9536,794550
14.9584,838883
14.9631,760909
14.9679,790143
14.9727,804542
14.9774,982316
14.9822,811581
14.987,801008
14.9917,787015
14.9965,797313
15.0012,836988
15.006,770932
15.0108,827137
15.0155,857658
15.0203,793342
15.025,818823
15.0298,808418
15.0346,805689
15.0393,776373
15.0441,796169
15.0489,802344
15.0536,805134
15.0584,805346
15.0631,785445
15.0679,816481
15.0727,830096
15.0774,831390
15.0822,860526
15.087,813015
15.0917,825835
15.0965,824022
15.1012,859794
15.106,777493
15.1108,833404
15.1155,806489
15.1203,842308
15.125,841223
15.1298,845895
15.1346,818394
15.1393,818725
15.1441,837710
15.1489,803380
15.1536,844984
15.1584,835029
15.1631,859721
15.1679,881956
15.1727,885747
15.1774,929642
15.1822,914084
15.187,903493
15.1917,904767
15.1965,901283
15.2012,940586
15.206,908198
15.2108,920038
15.2155,941515
15.2203,965360
15.225,1029706
15.2298,1045146
15.2346,1063503
15.2393,1036780
15.2441,970047
15.2489,950733
15.2536,1125406
15.2584,896087
15.2631,892166
15.2679,891271
15.2727,868247
15.2774,909206
15.2822,836980
15.287,868537
15.2917,849123
15.2965,823115
15.3012,876872
15.306,833311
15.3108,884673
15.3155,897539
15.3203,864651
15.3251,864604
15.3298,882018
15.3346,904120
15.3393,855445
15.3441,834814
15.3489,892804
15.3536,841648
15.3584,842396
15.3631,851030
15.3679,868927
15.3727,852976
15.3774,839465
15.3822,846081
15.387,836594
15.3917,865470
15.3965,844054
15.4012,834296
15.406,839751
15.4108,901785
15.4155,917502
15.4203,904183
15.4251,877524
15.4298,900545
15.4346,901462
15.4393,879395
15.4441,875146
15.4489,900106
15.4536,878036
15.4584,887764
15.4631,886665
15.4679,992174
15.4727,966521
15.4774,936181
15.4822,946929
15.487,922425
15.4917,947379
15.4965,843490
15.5012,878935
15.506,930022
15.5108,907878
15.5155,950408
15.5203,926378
15.5251,1000742
15.5298,1005561
15.5346,1089957
15.5393,1085954
15.5441,1042780
15.5489,1021985
15.5536,971552
15.5584,922043
15.5631,946248
15.5679,908440
15.5727,884862
15.5774,950030
15.5822,943537
15.587,964147
15.5917,920376
15.5965,945875
15.6012,887692
15.606,903767
15.6108,888540
15.6155,867957
15.6203,885685
15.6251,910936
15.6298,946710
15.6346,875816
15.6393,915173
15.6441,933873
15.6489,919516
15.6536,920277
15.6584,940515
15.6632,893004
15.6679,964397
15.6727,1082753
15.6774,1289648
15.6822,1546875
15.687,1698556
15.6917,1740609
15.6965,1578424
15.7012,1358473
15.706,1171069
15.7108,1074859
15.7155,1011228
15.7203,980544
15.7251,1057565
15.7298,1043394
15.7346,1102373
15.7393,1135826
15.7441,1193363
15.7489,1343273
15.7536,1507030
15.7584,1543944
15.7632,1480310
15.7679,1301063
15.7727,1199301
15.7774,1110368
15.7822,1063679
15.787,1102716
15.7917,1121386
15.7965,1101213
15.8012,1130186
15.806,1125842
15.8108,1094428
15.8155,1109201
15.8203,1040205
15.8251,1006729
15.8298,1050378
15.8346,1024934
15.8393,1068875
15.8441,1081054
15.8489,1094546
15.8536,1226057
15.8584,1270502
15.8632,1465402
15.8679,1510620
15.8727,1579217
15.8774,1467228
15.8822,1343092
15.887,1242819
15.8917,1193047
15.8965,1211801
15.9012,1219067
15.906,1131177
15.9108,1080618
15.9155,1133755
15.9203,1128868
15.9251,1127609
15.9298,1105388
15.9346,1075356
15.9393,1129972
15.9441,1094828
15.9489,1166772
15.9536,1173514
15.9584,1180466
15.9632,1147809
15.9679,1148628
15.9727,1090697
15.9774,1205838
15.9822,1166824
15.987,1201068
15.9917,1131836
15.9965,1145060
16.0012,1105725
16.006,1170151
16.0108,1179391
16.0155,1244899
16.0203,1403437
16.0251,1503076
16.0298,1636409
16.0346,1505320
16.0393,1432994
16.0441,1276343
16.0489,1308406
16.0536,1207792
16.0584,1209265
16.0632,1246345
16.0679,1224998
16.0727,1238640
16.0774,1166529
16.0822,1251669
16.087,1247134
16.0917,1273623
16.0965,1298770
16.1013,1299796
16.106,1434097
16.1108,1490331
16.1155,1544748
16.1203,1546721
16.1251,1524832
16.1298,1446640
16.1346,1421255
16.1393,1324275
16.1441,1306688
16.1489,1359857
16.1536,1311203
16.1584,1339919
16.1632,1279657
16.1679,1292232
16.1727,1313769
16.1774,1290358
16.1822,1335261
16.187,1256131
16.1917,1357785
16.1965,1324710
16.2013,1351863
16.206,1361050
16.2108,1374561
16.2155,1384541
16.2203,1384585
16.2251,1389003
16.2298,1392086
16.2346,1353663
16.2393,1411452
16.2441,1418757
16.2489,1380242
16.2536,1326105
16.2584,1398990
16.2632,1373650
16.2679,1396933
16.2727,1512739
16.2774,1429357
16.2822,1420583
16.287,1438648
16.2917,1409314
16.2965,1455687
16.3013,1453433
16.306,1524226
16.3108,1484484
16.3155,1435067
16.3203,1444831
16.3251,1467560
16.3298,1449066
16.3346,1496051
16.3393,1547937
16.3441,1501023
16.3489,1510194
16.3536,1567874
16.3584,1654678
16.3632,1851605
16.3679,2257775
16.3727,2503499
16.3774,2400873
16.3822,2166936
16.387,2021303
16.3917,1980379
16.3965,1990461
16.4013,2082920
16.406,2059395
16.4108,2308637
16.4155,2235923
16.4203,2134512
16.425,1895147
16.4298,1741663
16.4346,1732014
16.4394,1904215
16.4441,2639350
16.4489,4555412
16.4536,7734873
16.4584,9879018
16.4631,9286387
16.4679,6361951
16.4727,3870657
16.4774,2685803
16.4822,2191412
16.487,1979759
16.4917,1944698
16.4965,1943410
16.5012,1943338
16.506,1879338
16.5108,1870242
16.5155,1894350
16.5203,1974712
16.5251,1887209
16.5298,1929026
16.5346,1896070
16.5393,1938366
16.5441,1891798
16.5489,1884378
16.5536,1964315
16.5584,1924017
16.5632,1967866
16.5679,1898798
16.5727,1858017
16.5774,1882975
16.5822,1872700
16.587,1981713
16.5917,1958413
16.5965,1975814
16.6013,1969698
16.606,2025590
16.6108,2031376
16.6155,2005005
16.6203,2065061
16.6251,2090397
16.6298,1990399
16.6346,2051523
16.6394,1958358
16.6441,2007124
16.6489,1999506
16.6536,2075702
16.6584,2078469
16.6632,2083584
16.6679,2044516
16.6727,2059881
16.6774,1980297
16.6822,2037538
16.687,2022279
16.6917,2036314
16.6965,2036964
16.7013,2087834
16.706,2004889
16.7108,2086664
16.7155,2145691
16.7203,2041010
16.7251,2036793
16.7298,2033139
16.7346,2045605
16.7394,2105825
16.7441,2066753
16.7489,2093842
16.7536,2145650
16.7584,2098196
16.7632,2112138
16.7679,2082930
16.7727,2125672
16.7775,2128766
16.7822,2144963
16.787,2126932
16.7917,2098761
16.7965,2168257
16.8013,2163925
16.806,2254677
16.8108,2237181
16.8155,2222139
16.8203,2211971
16.8251,2160856
16.8298,2205861
16.8346,2237268
16.8394,2269062
16.8441,2291468
16.8489,2278474
16.8536,2264555
16.8584,2369826
16.8632,2413261
16.8679,2396446
16.8727,2283476
16.8775,2275170
16.8822,2203299
16.887,2237630
16.8917,2259890
16.8965,2287056
16.9013,2277022
16.906,2396028
16.9108,2503765
16.9155,2744817
16.9203,2762387
16.9251,2741858
16.9298,2726769
16.9346,2516227
16.9394,2465481
16.9441,2497430
16.9489,2402868
16.9536,2419735
16.9584,2455120
16.9632,2435246
16.9679,2434688
16.9727,2457452
16.9775,2643999
16.9822,2626966
16.987,2669871
16.9917,2637545
16.9965,2618069
17.0012,2594128
17.006,2707287
17.0108,3156724
17.0155,3570824
17.0203,3598777
17.0251,3198754
17.0298,2942365
17.0346,2703817
17.0393,2607140
17.0441,2499146
17.0489,2553989
17.0536,2473457
17.0584,2587768
17.0632,2491484
17.0679,2561026
17.0727,2570921
17.0774,2543476
17.0822,2560400
17.087,2466879
17.0917,2442099
17.0965,2599868
17.1013,2605220
17.106,2520035
17.1108,2597948
17.1155,2630934
17.1203,2697496
17.1251,2875146
17.1298,3377477
17.1346,4606641
17.1394,7024743
17.1441,9721592
17.1489,9647876
17.1536,7422182
17.1584,5094365
17.1632,3727952
17.1679,3194532
17.1727,2875291
17.1775,2922559
17.1822,2872311
17.187,2834222
17.1917,2796956
17.1965,2837952
17.2013,2762104
17.206,2685643
17.2108,2701729
17.2156,2736664
17.2203,2753513
17.2251,2698077
17.2298,2711166
17.2346,2767157
17.2394,2746959
17.2441,2702846
17.2489,2650032
17.2536,2758983
17.2584,2733687
17.2632,2744779
17.2679,2683679
17.2727,2840556
17.2775,2876777
17.2822,2800331
17.287,2833976
17.2917,2744625
17.2965,2925483
17.3013,3481331
17.306,5143812
17.3108,8108724
17.3156,10582193
17.3203,10937921
17.3251,9008942
17.3298,6140416
17.3346,4387247
17.3394,3596333
17.3441,3251843
17.3489,3063699
17.3536,2939854
17.3584,2938956
17.3632,2849055
17.3679,2896517
17.3727,2867866
17.3775,2742091
17.3822,2829493
17.387,2821746
17.3917,2883819
17.3965,2796244
17.4013,2873962
17.406,2821161
17.4108,2872728
17.4156,2850206
17.4203,2894518
17.4251,2772553
17.4298,2816269
17.4346,2823795
17.4394,2818079
17.4441,2834859
17.4489,2803073
17.4537,2876393
17.4584,2994595
17.4632,3059362
17.4679,3004079
17.4727,3082814
17.4775,3072642
17.4822,3047554
17.487,3038940
17.4917,3087008
17.4965,3062679
17.5013,2941158
17.506,2988572
17.5108,2865292
17.5156,2912398
17.5203,2939032
17.5251,2912183
17.5298,2962178
17.5346,2994457
17.5394,2885776
17.5441,2878817
17.5489,2856947
17.5537,2910318
17.5584,2903855
17.5632,2907815
17.5679,2972101
17.5727,2933306
17.5775,3030296
17.5822,2989481
17.587,2909426
17.5917,3038296
17.5965,3164314
17.6013,3247261
17.606,3466532
17.6108,3357333
17.6156,3331903
17.6203,3163687
17.6251,2993125
17.6298,2982252
17.6346,2933454
17.6394,3066419
17.6441,3585006
17.6489,5625242
17.6537,11454887
17.6584,23048558
17.6632,33644960
17.6679,36373952
17.6727,27550526
17.6775,16621299
17.6822,9895816
17.687,6324423
17.6917,4890681
17.6965,4190022
17.7013,3923227
17.706,3589856
17.7108,3494884
17.7156,3451677
17.7203,3374810
17.7251,3291431
17.7298,3265363
17.7346,3194817
17.7394,3158897
17.7441,3146115
17.7489,3132861
17.7537,3145306
17.7584,3130273
17.7632,3126970
17.7679,3153256
17.7727,3353618
17.7775,3701378
17.7822,4109748
17.787,4506352
17.7918,4483492
17.7965,4256336
17.8013,3729452
17.806,3508609
17.8108,3229988
17.8156,3193121
17.8203,3144895
17.8251,3100578
17.8298,3146478
17.8346,3165357
17.8394,3107738
17.8441,3062326
17.8489,3078470
17.8537,3102334
17.8584,3043650
17.8632,3142038
17.8679,3344716
17.8727,3498983
17.8775,3667475
17.8822,3879778
17.887,3823081
17.8918,3747078
17.8965,3562696
17.9013,3540737
17.906,3513315
17.9108,3619319
17.9156,3800858
17.9203,4010258
17.9251,3829496
17.9298,3615019
17.9346,3505441
17.9394,3325881
17.9441,3303045
17.9489,3292827
17.9537,3335405
17.9584,3379758
17.9632,3260691
17.9679,3216956
17.9727,3126048
17.9775,3141884
17.9822,3132800
17.987,3157463
17.9918,3097650
17.9965,3080281
18.0013,3141920
18.006,3018703
18.0108,3112256
18.0156,3147761
18.0203,3142821
18.0251,3127682
18.0298,3103830
18.0346,3126210
18.0394,3120938
18.0441,3112052
18.0489,3085336
18.0537,3104213
18.0584,3075290
18.0632,3084409
18.0679,3237560
18.0727,3574492
18.0775,4879233
18.0822,9012806
18.087,18982872
18.0918,37280328
18.0965,56839420
18.1013,62963564
18.106,54790572
18.1108,37050400
18.1156,21545342
18.1203,12869386
18.1251,8673958
18.1299,6601271
18.1346,5567351
18.1394,5088182
18.1441,5041737
18.1489,5136844
18.1537,5698388
18.1584,6203852
18.1632,6218807
18.1679,5838496
18.1727,5146649
18.1775,4551240
18.1822,4079246
18.187,3893768
18.1918,3698511
18.1965,3588930
18.2013,3506691
18.206,3527056
18.2108,3453332
18.2156,3385985
18.2203,3353487
18.2251,3338161
18.2299,3297249
18.2346,3344446
18.2394,3298529
18.2441,3279526
18.2489,3320782
18.2537,3158211
18.2584,3235776
18.2632,3299526
18.2679,3646523
18.2727,4672302
18.2775,7696251
18.2822,14155576
18.287,24409412
18.2918,35714248
18.2965,39455740
18.3013,34121148
18.306,24170676
18.3108,16086590
18.3156,10491973
18.3203,7324714
18.3251,5779685
18.3299,5026889
18.3346,4624032
18.3394,4305940
18.3441,4000482
18.3489,3949165
18.3537,3710635
18.3584,3750362
18.3632,3688818
18.3679,3516808
18.3727,3626254
18.3775,3516191
18.3822,3457481
18.387,3433852
18.3918,3356754
18.3965,3361442
18.4013,3332360
18.406,3383139
18.4108,3278182
18.4156,3349215
18.4203,3244334
18.4251,3252448
18.4299,3196197
18.4346,3244397
18.4394,3237701
18.4441,3142739
18.4489,3152986
18.4537,3248180
18.4584,3239084
18.4632,3252204
18.468,3148060
18.4727,3195585
18.4775,3215321
18.4822,3238432
18.487,3127518
18.4918,3185940
18.4965,3216984
18.5013,3125907
18.506,3118652
18.5108,3101001
18.5156,3251809
18.5203,3141938
18.5251,3176661
18.5299,3169502
18.5346,3107368
18.5394,3148832
18.5441,3135335
18.5489,3201895
18.5537,3119150
18.5584,3167537
18.5632,3103510
18.568,3129868
18.5727,3133760
18.5775,3087746
18.5822,3097929
18.587,3171100
18.5918,3116967
18.5965,3190703
18.6013,3120288
18.606,3145991
18.6108,3169195
18.6156,3220470
18.6203,3336006
18.6251,3494128
18.6299,3585621
18.6346,3692549
18.6394,3645838
18.6441,3468080
18.6489,3373274
18.6537,3279042
18.6584,3242626
18.6632,3126208
18.668,3205309
18.6727,3272268
18.6775,3615654
18.6822,4491919
18.687,6792824
18.6918,11144070
18.6965,17306124
18.7013,24098202
18.706,27967532
18.7108,25243152
18.7156,18911736
18.7203,12900911
18.7251,8751962
18.7299,6478478
18.7346,5182351
18.7394,4479377
18.7441,4150664
18.7489,3801333
18.7537,3710836
18.7584,3564283
18.7632,3546180
18.768,3458646
18.7727,3392209
18.7775,3259549
18.7822,3368401
18.787,3224014
18.7918,3280293
18.7965,3308930
18.8013,3305227
18.8061,3233192
18.8108,3181810
18.8156,3237827
18.8203,3232673
18.8251,3291005
18.8299,3435393
18.8346,3597298
18.8394,4201668
18.8441,4272118
18.8489,4534643
18.8537,4512737
18.8584,4342347
18.8632,4023067
18.868,3742295
18.8727,3615609
18.8775,3444156
18.8822,3411231
18.887,3305377
18.8918,3239566
18.8965,3198249
18.9013,3228859
18.9061,3174355
18.9108,3201127
18.9156,3254932
18.9203,3074177
18.9251,3206591
18.9299,3086855
18.9346,3172191
18.9394,3106918
18.9441,3164862
18.9489,3089391
18.9537,3220429
18.9584,3126966
18.9632,3132662
18.968,3059202
18.9727,3216591
18.9775,3128828
18.9822,3159860
18.987,3070150
18.9918,3095481
18.9965,3118062
19.0013,3165014
19.0061,3156600
19.0108,3061955
19.0156,3067037
19.0203,3071776
19.0251,3074354
19.0299,3059373
19.0346,3147303
19.0394,3134711
19.0441,3109283
19.0489,3133792
19.0537,3143172
19.0584,3112472
19.0632,3113689
19.068,3146630
19.0727,3055560
19.0775,3121992
19.0822,3080199
19.087,3263829
19.0918,3163897
19.0965,3080493
19.1013,3042611
19.1061,3083868
19.1108,3125429
19.1156,3176241
19.1203,3052843
19.1251,3150277
19.1299,3129360
19.1346,3139088
19.1394,3068817
19.1442,3102112
19.1489,3113572
19.1537,3023460
19.1584,3074132
19.1632,3102082
19.168,3172877
19.1727,3000898
19.1775,3083109
19.1822,3074558
19.187,3142222
19.1918,3077515
19.1965,3190924
19.2013,3352570
19.2061,3867560
19.2108,4860604
19.2156,6612020
19.2203,9049401
19.2251,12203428
19.2299,14438203
19.2346,14716915
19.2394,13437993
19.2442,11036345
19.2489,8682204
19.2537,6675641
19.2584,5342455
19.2632,4505279
19.268,4023054
19.2727,3829375
19.2775,3597135
19.2822,3483119
19.287,3438464
19.2918,3466830
19.2965,3491768
19.3013,3572072
19.3061,3670803
19.3108,3719103
19.3156,3909002
19.3203,3699158
19.3251,3673417
19.3299,3471960
19.3346,3382908
19.3394,3371486
19.3442,3186886
19.3489,3147376
19.3537,3197260
19.3584,3085840
19.3632,3111275
19.368,3110897
19.3727,3137656
19.3775,3078963
19.3822,3171601
19.387,3105842
19.3918,3121135
19.3965,3050784
19.4013,3159519
19.4061,3057516
19.4108,3066038
19.4156,3102092
19.4203,3090034
19.4251,3089300
19.4299,3132283
19.4346,3043639
19.4394,3125347
19.4442,3217764
19.4489,3402714
19.4537,3702289
19.4584,4460428
19.4632,5689829
19.468,7464428
19.4727,9793495
19.4775,11522102
19.4823,12382785
19.487,11472741
19.4918,9731708
19.4965,8153327
19.5013,6392519
19.5061,5204338
19.5108,4470606
19.5156,4035588
19.5203,3714156
19.5251,3473730
19.5299,3449014
19.5346,3366488
19.5394,3247862
19.5442,3285806
19.5489,3293670
19.5537,3158350
19.5584,3254004
19.5632,3158697
19.568,3144444
19.5727,3166851
19.5775,3171167
19.5823,3058086
19.587,3121983
19.5918,3101353
19.5965,3153257
19.6013,3060763
19.6061,3039200
19.6108,3045959
19.6156,3093501
19.6203,3084423
19.6251,3061089
19.6299,3045719
19.6346,3104600
19.6394,3082611
19.6442,3062987
19.6489,3021103
19.6537,3044884
19.6584,3017361
19.6632,3086250
19.668,3033965
19.6727,2922231
19.6775,3038924
19.6823,3052191
19.687,3035976
19.6918,3053477
19.6965,2999753
19.7013,3017759
19.7061,3106481
19.7108,3078634
19.7156,3064005
19.7203,3035086
19.7251,3056475
19.7299,3116000
19.7346,3073721
19.7394,3032207
19.7442,3009532
19.7489,3005941
19.7537,3033262
19.7584,3004691
19.7632,2970648
19.768,3084397
19.7727,2996993
19.7775,3000452
19.7823,3053821
19.787,3082640
19.7918,3061910
19.7965,3003946
19.8013,2951405
19.8061,3061787
19.8108,3039418
19.8156,2848443
19.8204,3012050
19.8251,3043108
19.8299,3023404
19.8346,2951223
19.8394,2950458
19.8442,3009610
19.8489,2945770
19.8537,3005597
19.8584,2997459
19.8632,2962519
19.868,2994925
19.8727,3063359
19.8775,3027251
19.8823,3042001
19.887,3058370
19.8918,2979078
19.8965,2999038
19.9013,3003386
19.9061,2992711
19.9108,3089453
19.9156,3129327
19.9204,3102342
19.9251,3087749
19.9299,3013452
19.9346,3070932
19.9394,2991688
19.9442,3032667
19.9489,2963413
19.9537,2948818
19.9584,3087298
19.9632,2995665
19.968,2988808
19.9727,3005479
19.9775,3059830
19.9823,3085866
19.987,3109248
19.9918,3302024
19.9965,3382687
20.0013,3526569
20.0061,3675164
20.0108,3718837
20.0156,3841916
20.0204,3722960
20.0251,3564048
20.0299,3425187
20.0346,3291278
20.0394,3208445
20.0442,3159478
20.0489,3076740
20.0537,3122582
20.0584,3019823
20.0632,3073486
20.068,2987179
20.0727,3056494
20.0775,2964825
20.0823,2989293
20.087,3059998
20.0918,3083020
20.0965,3076502
20.1013,3007449
20.1061,2997206
20.1108,2988818
20.1156,3049936
20.1204,2996036
20.1251,3012200
20.1299,3087421
20.1346,3093611
20.1394,3026128
20.1442,3006939
20.1489,3073540
20.1537,2972774
20.1585,3006493
20.1632,3018941
20.168,3012470
20.1727,2961803
20.1775,2968841
20.1823,2982855
20.187,3003394
20.1918,3065681
20.1965,2974887
20.2013,3093816
20.2061,3125389
20.2108,3092061
20.2156,3105844
20.2204,3049747
20.2251,2961926
20.2299,3019923
20.2346,3051667
20.2394,2981998
20.2442,2966064
20.2489,3004664
20.2537,3076907
20.2585,2930597
20.2632,2965621
20.268,2934106
20.2727,2932727
20.2775,2977595
20.2823,2965963
20.287,3020693
20.2918,2990861
20.2965,2874439
20.3013,2958689
20.3061,2928766
20.3108,2956618
20.3156,3043739
20.3204,3018892
20.3251,2960479
20.3299,2965562
20.3346,2967719
20.3394,2934553
20.3442,2923560
20.3489,2950794
20.3537,2988265
20.3585,2958899
20.3632,2981528
20.368,2934419
20.3727,3041556
20.3775,2988302
20.3823,2996914
20.387,3016477
20.3918,3004334
20.3965,2913441
20.4013,2944370
20.4061,3001023
20.4108,2971766
20.4156,2962988
20.4204,2933111
20.4251,2961808
20.4299,2952704
20.4346,2984460
20.4394,2950273
20.4442,2946985
20.4489,2947564
20.4537,2938653
20.4585,2965851
20.4632,2911988
20.468,2984611
20.4727,2995038
20.4775,2941196
20.4823,2997710
20.487,2960403
20.4918,2951119
20.4966,2906218
20.5013,2900599
20.5061,2948704
20.5108,2944650
20.5156,2973800
20.5204,2955012
20.5251,2964089
20.5299,2993383
20.5346,2954920
20.5394,2894964
20.5442,2960653
20.5489,2970247
20.5537,2884516
20.5585,2980854
20.5632,2941917
20.568,3004932
20.5727,2902499
20.5775,2944716
20.5823,2888337
20.587,2992144
20.5918,2887644
20.5966,2977717
20.6013,2939684
20.6061,2887766
20.6108,2900040
20.6156,2972057
20.6204,2986897
20.6251,2880220
20.6299,2936012
20.6346,2989297
20.6394,2972209
20.6442,2978039
20.6489,2889056
20.6537,2973421
20.6585,2960740
20.6632,2929368
20.668,2947317
20.6727,2963932
20.6775,3041573
20.6823,2960680
20.687,2979225
20.6918,3004456
20.6966,3062694
20.7013,3083891
20.7061,3116004
20.7108,3027200
20.7156,3049231
20.7204,3068774
20.7251,3128191
20.7299,3027972
20.7346,3017441
20.7394,3026643
20.7442,2970190
20.7489,3034046
20.7537,3013818
20.7585,2885251
20.7632,3011502
20.768,2947195
20.7727,2994629
20.7775,2942143
20.7823,2926769
20.787,2943397
20.7918,2984751
20.7966,2920623
20.8013,2908004
20.8061,2963181
20.8108,2957229
20.8156,2964479
20.8204,2964628
20.8251,3026246
20.8299,3061385
20.8347,2979130
20.8394,2935942
20.8442,3006311
20.8489,2992306
20.8537,2875620
20.8585,2909719
20.8632,3022817
20.868,2903485
20.8727,2912597
20.8775,2905059
20.8823,2905048
20.887,2862731
20.8918,2956070
20.8966,2905850
20.9013,2897179
20.9061,2960651
20.9108,2906492
20.9156,2988428
20.9204,2806327
20.9251,2953402
20.9299,2844781
20.9347,2902235
20.9394,2950283
20.9442,2837107
20.9489,2893629
20.9537,2916635
20.9585,2857812
20.9632,2932303
20.968,2901942
20.9727,2906940
20.9775,3011092
20.9823,2934196
20.987,2976749
20.9918,2968485
20.9966,2966732
21.0013,2973973
21.0061,2952764
21.0108,2914003
21.0156,2923372
21.0204,2965641
21.0251,2952221
21.0299,2998368
21.0347,3004342
21.0394,2980815
21.0442,3078880
21.0489,3170379
21.0537,3138444
21.0585,3106382
21.0632,3035247
21.068,3069066
21.0727,3020508
21.0775,3017344
21.0823,2943371
21.087,3012571
21.0918,2960154
21.0966,2987922
21.1013,2920639
21.1061,2962546
21.1108,2884943
21.1156,2949086
21.1204,2939965
21.1251,2869354
21.1299,3034162
21.1347,2860989
21.1394,2961332
21.1442,2936630
21.1489,2916658
21.1537,2928089
21.1585,2973899
21.1632,2893458
21.168,2991446
21.1728,2933526
21.1775,2961555
21.1823,2972030
21.187,2901500
21.1918,2892079
21.1966,2958697
21.2013,2939248
21.2061,2953787
21.2108,2870783
21.2156,2929352
21.2204,2881044
21.2251,2935724
21.2299,2891166
21.2347,2821949
21.2394,2932876
21.2442,2918995
21.2489,2901039
21.2537,2857306
21.2585,2870605
21.2632,2902748
21.268,2901703
21.2728,2892276
21.2775,2892909
21.2823,2966659
21.287,2942569
21.2918,2912485
21.2966,2876811
21.3013,2902342
21.3061,2969161
21.3108,2934691
21.3156,2959226
21.3204,2887138
21.3251,2918496
21.3299,2896431
21.3347,2876090
21.3394,2983220
21.3442,2917071
21.3489,2875442
21.3537,2861881
21.3585,2881459
21.3632,2966793
21.368,2898006
21.3728,2965626
21.3775,2913588
21.3823,2878625
21.387,2886636
21.3918,2976641
21.3966,2960649
21.4013,2907635
21.4061,2822609
21.4108,2949642
21.4156,2875668
21.4204,2917821
21.4251,2961128
21.4299,2872941
21.4347,2894666
21.4394,2968319
21.4442,2877764
21.4489,2963206
21.4537,2965973
21.4585,2915457
21.4632,2978355
21.468,2886738
21.4728,2884121
21.4775,2899185
21.4823,2902350
21.487,2886617
21.4918,2925329
21.4966,2890079
