D:\DATA\HAMBERGER\NICK\20230701\20230701_5-26-23_NBenthi_20.D  2 Jul 23   1:15 am
Start of data points
4.09173,2553083
4.09648,2531463
4.10125,2537440
4.10602,2544959
4.11078,2534754
4.11553,2555591
4.1203,2604257
4.12507,2660862
4.12982,2776442
4.13458,2775850
4.13935,2735159
4.14412,2549081
4.14887,2763416
4.15363,2587060
4.1584,2309192
4.16315,2218905
4.16792,2248296
4.17268,2246773
4.17745,2206161
4.1822,2209710
4.18697,2149106
4.19173,2256544
4.19648,2339625
4.20125,2151251
4.20602,2054563
4.21078,2093135
4.21553,2020006
4.2203,2020284
4.22507,1939493
4.22983,1939367
4.23458,1887960
4.23935,2001554
4.24412,1946700
4.24887,1984466
4.25363,1963464
4.2584,1959220
4.26317,1950717
4.26792,1910902
4.27268,1939985
4.27745,1913567
4.2822,2107335
4.28697,2402568
4.29173,2178850
4.2965,1877126
4.30125,1783173
4.30602,1778094
4.31078,1736985
4.31553,1728805
4.3203,1726995
4.32507,1808763
4.32983,1907657
4.33458,2005079
4.33935,1931763
4.34412,1798483
4.34887,1762566
4.35363,1863277
4.3584,1879477
4.36317,1883148
4.36792,1971313
4.37268,1979418
4.37745,1952200
4.3822,1939866
4.38697,1898658
4.39173,1850725
4.3965,1780627
4.40125,1740794
4.40602,1718238
4.41078,1714557
4.41555,1705423
4.4203,1730278
4.42507,1750205
4.42983,1844564
4.43458,1969635
4.43935,1864051
4.44412,1838522
4.44888,1905194
4.45363,1775610
4.4584,1790755
4.46317,1617476
4.46792,1622698
4.47268,1604980
4.47745,1555317
4.48222,1627869
4.48697,1638866
4.49173,1622660
4.4965,1604120
4.50125,1658551
4.50602,1607312
4.51078,1606368
4.51555,1629653
4.5203,1799858
4.52507,1922105
4.52983,1737925
4.53458,1603037
4.53935,1580508
4.54412,1722216
4.54888,1747811
4.55363,1823046
4.5584,1630661
4.56317,1575799
4.56793,1596281
4.57268,1641397
4.57745,1900225
4.58222,2187238
4.58697,2276274
4.59173,2172968
4.5965,1858151
4.60127,1669421
4.60602,1566804
4.61078,1550688
4.61555,1528946
4.6203,1548397
4.62507,1505017
4.62983,1523736
4.6346,1433888
4.63935,1495899
4.64412,1425249
4.64888,1426439
4.65363,1498464
4.6584,1501208
4.66317,1433109
4.66793,1503844
4.67268,1486115
4.67745,1550431
4.68222,1511432
4.68697,1413595
4.69173,1416354
4.6965,1399681
4.70127,1444250
4.70602,1403548
4.71078,1391712
4.71555,1397541
4.7203,1406125
4.72507,1396695
4.72983,1406072
4.7346,1426687
4.73935,1379268
4.74412,1344690
4.74888,1342847
4.75365,1401854
4.7584,1415098
4.76317,1400593
4.76793,1417871
4.77268,1391134
4.77745,1402527
4.78222,1341876
4.78698,1361668
4.79173,1362982
4.7965,1343422
4.80127,1341711
4.80602,1402079
4.81078,1328745
4.81555,1359502
4.82032,1330899
4.82507,1292450
4.82983,1386070
4.8346,1372924
4.83935,1370020
4.84412,1408116
4.84888,1432263
4.85365,1390080
4.8584,1366399
4.86317,1448935
4.86793,1456199
4.87268,1474597
4.87745,1502054
4.88222,1432907
4.88698,1443841
4.89173,1485152
4.8965,1458916
4.90127,1450723
4.90603,1478103
4.91078,1512309
4.91555,1492711
4.92032,1436961
4.92507,1441319
4.92983,1408647
4.9346,1519977
4.93937,1558802
4.94412,1477769
4.94888,1437324
4.95365,1476275
4.9584,1427785
4.96317,1414303
4.96793,1436567
4.9727,1473391
4.97745,1436881
4.98222,1436320
4.98698,1394059
4.99173,1428363
4.9965,1411177
5.00127,1373314
5.00603,1413518
5.01078,1364910
5.01555,1401915
5.02032,1412660
5.02507,1394480
5.02983,1404832
5.0346,1358638
5.03937,1383811
5.04412,1360928
5.04888,1362426
5.05365,1382990
5.0584,1327905
5.06317,1320465
5.06793,1365318
5.0727,1354355
5.07745,1355196
5.08222,1356463
5.08698,1326777
5.09175,1362623
5.0965,1356219
5.10127,1347751
5.10603,1361005
5.11078,1346971
5.11555,1255800
5.12032,1335672
5.12508,1308588
5.12983,1336540
5.1346,1416613
5.13937,1378379
5.14412,1459989
5.14888,1449873
5.15365,1457349
5.15842,1455260
5.16317,1435596
5.16793,1457119
5.1727,1491037
5.17745,1478848
5.18222,1473210
5.18698,1495332
5.19175,1500331
5.1965,1456795
5.20127,1495165
5.20603,1490455
5.21078,1477357
5.21555,1491854
5.22032,1461167
5.22508,1455896
5.22983,1517577
5.2346,1505629
5.23937,1557396
5.24412,1514964
5.24888,1542384
5.25365,1451067
5.25842,1418886
5.26317,1538755
5.26793,1744020
5.2727,2002268
5.27747,1984756
5.28222,1787517
5.28698,1618147
5.29175,1573768
5.2965,1498139
5.30127,1546135
5.30603,1487921
5.3108,1443839
5.31555,1460477
5.32032,1459983
5.32508,1460812
5.32983,1443610
5.3346,1479294
5.33937,1453617
5.34413,1464019
5.34888,1466545
5.35365,1497342
5.35842,1428891
5.36317,1477649
5.36793,1451184
5.3727,1440960
5.37747,1454165
5.38222,1438981
5.38698,1409408
5.39175,1424777
5.3965,1414265
5.40127,1440307
5.40603,1456833
5.4108,1433044
5.41555,1463370
5.42032,1519710
5.42508,1507076
5.42985,1482586
5.4346,1443407
5.43937,1469883
5.44413,1480705
5.44888,1450214
5.45365,1479802
5.45842,1445931
5.46318,1459127
5.46793,1405150
5.4727,1351528
5.47747,1361483
5.48222,1405186
5.48698,1460547
5.49175,1468419
5.49652,1376999
5.50127,1436825
5.50603,1387561
5.5108,1398937
5.51555,1416538
5.52032,1398837
5.52508,1432746
5.52985,1429100
5.5346,1347118
5.53937,1352591
5.54413,1370027
5.54888,1393373
5.55365,1366845
5.55842,1504619
5.56318,1384048
5.56793,1338683
5.5727,1306742
5.57747,1350681
5.58222,1317204
5.58698,1326740
5.59175,1331791
5.59652,1334571
5.60127,1346972
5.60603,1386586
5.6108,1341864
5.61557,1286968
5.62032,1364446
5.62508,1296376
5.62985,1332121
5.6346,1379223
5.63937,1339136
5.64413,1317330
5.6489,1296077
5.65365,1293704
5.65842,1294487
5.66318,1304808
5.66793,1348790
5.6727,1329019
5.67747,1341128
5.68223,1309816
5.68698,1296961
5.69175,1311929
5.69652,1283691
5.70127,1279077
5.70603,1314237
5.7108,1331629
5.71557,1319698
5.72032,1320842
5.72508,1263636
5.72985,1318701
5.7346,1320174
5.73937,1335051
5.74413,1313690
5.7489,1396845
5.75365,1325818
5.75842,1363203
5.76318,1329815
5.76795,1348509
5.7727,1361735
5.77747,1380988
5.78223,1394641
5.78698,1361394
5.79175,1341346
5.79652,1334123
5.80128,1622784
5.80603,2251577
5.8108,2456727
5.81557,2570904
5.82032,2550307
5.82508,2519656
5.82985,2421453
5.83462,2506167
5.83937,2461260
5.84413,2384328
5.8489,2371077
5.85365,2303357
5.85842,2267949
5.86318,2266888
5.86795,2216820
5.8727,2138693
5.87747,2126650
5.88223,2026635
5.88698,1999628
5.89175,1962726
5.89652,1989873
5.90128,1974125
5.90603,1925179
5.9108,1866591
5.91557,1847062
5.92032,1832169
5.92508,1769208
5.92985,1778151
5.93462,1765788
5.93937,1672687
5.94413,1664899
5.9489,1683567
5.95367,1654140
5.95842,1668463
5.96318,1728940
5.96795,1844134
5.9727,1854405
5.97747,1848930
5.98223,1739014
5.987,1681926
5.99175,1605740
5.99652,1590236
6.00128,1550693
6.00603,1515554
6.0108,1509524
6.01557,1496070
6.02033,1490264
6.02508,1543476
6.02985,1460397
6.03462,1448359
6.03937,1480768
6.04413,1455007
6.0489,1392571
6.05367,1407381
6.05842,1433997
6.06318,1425275
6.06795,1405237
6.0727,1405736
6.07747,1464476
6.08223,1545671
6.087,1589420
6.09175,1677147
6.09652,1600233
6.10128,1514528
6.10605,1457527
6.1108,1454863
6.11557,1389562
6.12033,1383995
6.12508,1354266
6.12985,1356328
6.13462,1268544
6.13938,1314147
6.14413,1328019
6.1489,1326311
6.15367,1286949
6.15842,1283592
6.16318,1310714
6.16795,1379385
6.17272,1438291
6.17747,1446273
6.18223,1458456
6.187,1422960
6.19175,1346878
6.19652,1354076
6.20128,1338683
6.20605,1309138
6.2108,1333445
6.21557,1422951
6.22033,1398437
6.22508,1387641
6.22985,1384249
6.23462,1316379
6.23938,1350214
6.24413,1300855
6.2489,1283712
6.25367,1302455
6.25842,1283952
6.26318,1255455
6.26795,1233127
6.27272,1238108
6.27747,1218035
6.28223,1215730
6.287,1221152
6.29177,1214384
6.29652,1234477
6.30128,1185857
6.30605,1171245
6.3108,1218312
6.31557,1221246
6.32033,1244479
6.3251,1186603
6.32985,1228466
6.33462,1198739
6.33938,1148562
6.34413,1191876
6.3489,1207287
6.35367,1190469
6.35843,1161530
6.36318,1179656
6.36795,1189023
6.37272,1135100
6.37747,1138573
6.38223,1150563
6.387,1174260
6.39177,1097323
6.39652,1189543
6.40128,1187723
6.40605,1217288
6.4108,1223041
6.41557,1236583
6.42033,1322151
6.4251,1244990
6.42985,1268927
6.43462,1282219
6.43938,1212641
6.44413,1176973
6.4489,1119594
6.45367,1124720
6.45843,1113074
6.46318,1141291
6.46795,1130908
6.47272,1133948
6.47748,1144438
6.48223,1125157
6.487,1140722
6.49177,1070764
6.49652,1151386
6.50128,1130590
6.50605,1099676
6.51082,1158645
6.51557,1103681
6.52033,1105630
6.5251,1067091
6.52985,1117952
6.53462,1124810
6.53938,1156266
6.54415,1114798
6.5489,1114774
6.55367,1103738
6.55843,1122781
6.56318,1105083
6.56795,1096602
6.57272,1049950
6.57748,1059521
6.58223,1076274
6.587,1106312
6.59177,1090353
6.59652,1054174
6.60128,1091468
6.60605,1117573
6.61082,1049849
6.61557,1096238
6.62033,1061805
6.6251,1037079
6.62987,1037063
6.63462,1009399
6.63938,1084061
6.64415,1053336
6.6489,1029916
6.65367,1106360
6.65843,1099675
6.6632,1076653
6.66795,1052628
6.67272,1105626
6.67748,1062646
6.68223,1068407
6.687,1029850
6.69177,1031250
6.69653,1027016
6.70128,1027635
6.70605,1017538
6.71082,1024369
6.71557,1081925
6.72033,1021944
6.7251,975343
6.72987,1064778
6.73462,1007747
6.73938,1034603
6.74415,1032968
6.7489,1034636
6.75367,991715
6.75843,1045638
6.7632,1014668
6.76795,1052232
6.77272,1007538
6.77748,1046145
6.78223,1050040
6.787,1051217
6.79177,1060213
6.79653,1027700
6.80128,1007646
6.80605,1041354
6.81082,1028349
6.81558,1024645
6.82033,1014767
6.8251,1065758
6.82987,1049147
6.83462,1034751
6.83938,1064223
6.84415,1079063
6.84892,1103709
6.85367,1082872
6.85843,1081884
6.8632,1074590
6.86795,1061713
6.87272,1072967
6.87748,1052983
6.88225,1070648
6.887,1041052
6.89177,1045149
6.89653,1033983
6.90128,1044079
6.90605,1001115
6.91082,1000492
6.91558,962061
6.92033,1000756
6.9251,960463
6.92987,955835
6.93462,983826
6.93938,962583
6.94415,956848
6.94892,967317
6.95367,983670
6.95843,1001552
6.9632,966382
6.96797,938261
6.97272,964019
6.97748,981909
6.98225,927720
6.987,926017
6.99177,927313
6.99653,929353
7.0013,952407
7.00605,906601
7.01082,937391
7.01558,925209
7.02033,934286
7.0251,937795
7.02987,971567
7.03463,941097
7.03938,908278
7.04415,923025
7.04892,893285
7.05367,922099
7.05843,907700
7.0632,938216
7.06797,910988
7.07272,941289
7.07748,913801
7.08225,929659
7.087,875954
7.09177,891321
7.09653,892950
7.1013,880752
7.10605,853103
7.11082,854917
7.11558,914945
7.12033,905583
7.1251,853158
7.12987,879258
7.13463,865024
7.13938,834031
7.14415,843167
7.14892,893610
7.15368,860417
7.15843,880632
7.1632,840505
7.16797,871948
7.17272,849884
7.17748,912828
7.18225,864442
7.18702,857805
7.19177,873752
7.19653,841999
7.2013,849906
7.20605,847948
7.21082,878794
7.21558,879622
7.22035,842249
7.2251,853004
7.22987,844619
7.23463,879913
7.23938,864112
7.24415,837774
7.24892,836771
7.25368,817945
7.25843,843744
7.2632,827501
7.26797,795590
7.27272,835246
7.27748,827029
7.28225,825026
7.28702,824286
7.29177,858497
7.29653,831033
7.3013,806817
7.30605,842593
7.31082,815533
7.31558,820759
7.32035,827863
7.3251,832090
7.32987,825157
7.33463,844360
7.3394,818302
7.34415,807916
7.34892,807767
7.35368,830504
7.35843,806753
7.3632,792934
7.36797,814372
7.37273,826840
7.37748,801452
7.38225,809118
7.38702,811388
7.39177,838208
7.39653,767822
7.4013,834319
7.40607,810836
7.41082,783733
7.41558,834959
7.42035,798891
7.4251,830195
7.42987,801665
7.43463,776484
7.4394,761868
7.44415,803475
7.44892,816668
7.45368,798872
7.45843,784702
7.4632,774442
7.46797,807559
7.47273,800387
7.47748,763434
7.48225,797058
7.48702,758023
7.49178,822355
7.49653,809145
7.5013,800745
7.50607,784827
7.51082,776850
7.51558,804375
7.52035,792970
7.52512,790512
7.52987,828089
7.53463,935782
7.5394,985872
7.54415,1029889
7.54892,1006550
7.55368,951203
7.55845,857210
7.5632,828917
7.56797,785690
7.57273,789188
7.57748,811895
7.58225,768355
7.58702,758617
7.59178,803924
7.59653,751395
7.6013,767024
7.60607,786739
7.61082,766138
7.61558,769601
7.62035,769867
7.62512,758517
7.62987,793884
7.63463,726084
7.6394,709766
7.64415,755326
7.64892,757072
7.65368,751199
7.65845,752104
7.6632,755362
7.66797,768808
7.67273,732805
7.6775,694039
7.68225,743794
7.68702,779239
7.69178,702009
7.69653,730589
7.7013,701687
7.70607,718245
7.71083,721841
7.71558,725265
7.72035,718014
7.72512,730269
7.72987,737654
7.73463,733610
7.7394,749775
7.74417,706673
7.74892,765680
7.75368,696807
7.75845,747193
7.7632,731121
7.76797,707335
7.77273,719212
7.7775,721952
7.78225,700853
7.78702,708517
7.79178,721016
7.79653,738740
7.8013,706821
7.80607,736981
7.81083,748244
7.81558,744894
7.82035,768816
7.82512,739181
7.82988,709022
7.83463,723589
7.8394,764789
7.84417,725019
7.84892,705428
7.85368,710761
7.85845,778085
7.86322,710482
7.86797,709706
7.87273,735993
7.8775,701600
7.88225,720010
7.88702,707083
7.89178,722196
7.89655,720360
7.9013,696213
7.90607,741245
7.91083,733173
7.91558,733893
7.92035,773105
7.92512,786496
7.92988,878096
7.93463,909880
7.9394,903652
7.94417,930704
7.94892,839095
7.95368,768467
7.95845,749057
7.96322,753463
7.96797,745338
7.97273,764058
7.9775,769943
7.98225,723019
7.98702,753697
7.99178,717045
7.99655,718208
8.0013,706162
8.00607,746009
8.01083,731967
8.0156,713394
8.02035,731187
8.02512,771201
8.02988,717367
8.03463,694452
8.0394,712582
8.04417,735927
8.04893,673637
8.05368,720188
8.05845,698969
8.06322,678344
8.06797,738975
8.07273,709527
8.0775,739342
8.08227,762150
8.08702,707628
8.09178,711138
8.09655,703645
8.1013,686732
8.10607,684616
8.11083,708859
8.1156,710563
8.12035,727061
8.12512,737802
8.12988,736513
8.13463,723222
8.1394,760914
8.14417,720772
8.14893,705725
8.15368,683506
8.15845,697101
8.16322,661797
8.16797,691195
8.17273,688466
8.1775,688655
8.18227,651952
8.18702,686850
8.19178,657319
8.19655,713199
8.20132,679830
8.20607,676738
8.21083,664146
8.2156,707869
8.22035,710073
8.22512,684430
8.22988,639580
8.23465,673280
8.2394,671913
8.24417,652514
8.24893,672927
8.25368,659031
8.25845,667600
8.26322,667505
8.26798,650683
8.27273,653085
8.2775,685391
8.28227,660192
8.28702,667826
8.29178,660976
8.29655,624636
8.30132,649614
8.30607,632506
8.31083,658931
8.3156,659187
8.32035,666409
8.32512,652025
8.32988,628599
8.33465,662697
8.3394,652764
8.34417,647852
8.34893,643568
8.3537,652283
8.35845,646914
8.36322,645388
8.36798,643370
8.37273,657034
8.3775,623617
8.38227,639925
8.38703,636058
8.39178,617596
8.39655,632651
8.40132,691805
8.40607,622035
8.41083,617700
8.4156,634023
8.42037,660168
8.42512,608273
8.42988,624257
8.43465,621825
8.4394,653679
8.44417,630911
8.44893,649163
8.4537,621738
8.45845,605355
8.46322,637529
8.46798,635488
8.47273,657641
8.4775,607951
8.48227,610826
8.48703,640202
8.49178,631953
8.49655,605571
8.50132,622394
8.50607,618543
8.51083,651598
8.5156,630805
8.52037,630354
8.52512,613835
8.52988,616498
8.53465,651784
8.53942,588416
8.54417,631414
8.54893,615191
8.5537,615578
8.55845,635441
8.56322,646744
8.56798,610469
8.57275,600963
8.5775,595779
8.58227,607865
8.58703,656611
8.59178,621665
8.59655,578510
8.60132,607419
8.60608,626595
8.61083,627031
8.6156,649672
8.62037,604100
8.62512,593946
8.62988,614029
8.63465,648070
8.63942,593331
8.64417,615866
8.64893,625477
8.6537,613016
8.65845,598453
8.66322,619590
8.66798,603562
8.67275,607088
8.6775,615784
8.68227,598445
8.68703,601622
8.6918,587007
8.69655,626929
8.70132,599407
8.70608,637161
8.71083,620144
8.7156,614508
8.72037,594883
8.72513,597319
8.72988,577068
8.73465,592749
8.73942,612116
8.74417,576887
8.74893,606268
8.7537,564515
8.75847,589363
8.76322,574463
8.76798,556221
8.77275,579995
8.7775,560018
8.78227,593388
8.78703,577046
8.7918,574438
8.79655,582342
8.80132,584521
8.80608,592497
8.81083,599408
8.8156,594398
8.82037,591891
8.82513,594253
8.82988,583945
8.83465,571548
8.83942,564422
8.84417,565873
8.84893,602470
8.8537,587217
8.85847,580786
8.86322,581329
8.86798,576597
8.87275,560329
8.87752,570263
8.88227,576372
8.88703,586435
8.8918,610452
8.89655,601054
8.90132,568053
8.90608,553473
8.91085,558462
8.9156,560619
8.92037,563355
8.92513,579623
8.92988,565709
8.93465,575757
8.93942,542552
8.94418,560803
8.94893,564592
8.9537,563336
8.95847,562463
8.96322,566810
8.96798,574202
8.97275,577409
8.97752,578808
8.98227,619300
8.98703,648976
8.9918,642532
8.99655,709115
9.00132,748737
9.00608,739264
9.01085,735582
9.0156,704839
9.02037,709112
9.02513,639509
9.02988,670086
9.03465,614911
9.03942,615071
9.04418,562070
9.04893,582060
9.0537,601366
9.05847,575722
9.06323,577238
9.06798,600871
9.07275,566215
9.07752,556021
9.08227,578023
9.08703,537519
9.0918,584882
9.09657,546611
9.10132,535353
9.10608,530859
9.11085,559766
9.1156,595024
9.12037,611224
9.12513,596393
9.1299,598305
9.13465,652737
9.13942,649055
9.14418,618675
9.14893,630350
9.1537,594157
9.15847,602076
9.16323,570538
9.16798,567882
9.17275,543532
9.17752,608141
9.18227,557928
9.18703,539347
9.1918,583924
9.19657,552564
9.20132,524686
9.20608,551973
9.21085,528393
9.21562,526367
9.22037,524727
9.22513,537787
9.2299,550617
9.23465,584082
9.23942,547490
9.24418,526007
9.24895,540522
9.2537,543023
9.25847,512913
9.26323,536223
9.26798,543418
9.27275,522127
9.27752,552210
9.28228,508232
9.28703,554807
9.2918,502946
9.29657,548877
9.30132,543280
9.30608,550149
9.31085,534735
9.31562,556735
9.32037,522292
9.32513,539865
9.3299,529717
9.33465,544814
9.33942,565153
9.34418,571312
9.34895,580184
9.3537,566458
9.35847,577206
9.36323,553278
9.36798,558814
9.37275,521958
9.37752,544544
9.38228,575605
9.38703,511155
9.3918,552197
9.39657,585842
9.40133,577694
9.40608,590542
9.41085,569784
9.41562,572900
9.42037,560679
9.42513,555715
9.4299,560219
9.43467,538666
9.43942,540237
9.44418,520165
9.44895,529050
9.4537,538629
9.45847,495998
9.46323,513790
9.468,631992
9.47275,508691
9.47752,520430
9.48228,533392
9.48703,519989
9.4918,520247
9.49657,539701
9.50133,541797
9.50608,528937
9.51085,551655
9.51562,513475
9.52037,516877
9.52513,517938
9.5299,496704
9.53467,529832
9.53942,515822
9.54418,529258
9.54895,541462
9.55372,510871
9.55847,520090
9.56323,543132
9.568,521912
9.57275,512443
9.57752,568351
9.58228,547860
9.58705,562154
9.5918,530184
9.59657,539265
9.60133,538179
9.60608,562045
9.61085,549327
9.61562,595582
9.62038,576715
9.62513,601887
9.6299,566938
9.63467,596249
9.63942,596017
9.64418,574648
9.64895,571324
9.65372,563112
9.65847,583250
9.66323,522697
9.668,513707
9.67275,511294
9.67752,531481
9.68228,501715
9.68705,504596
9.6918,521763
9.69657,534168
9.70133,504101
9.70608,512302
9.71085,498222
9.71562,491075
9.72038,516594
9.72513,474382
9.7299,485697
9.73467,516896
9.73943,507139
9.74418,506199
9.74895,507539
9.75372,514535
9.75847,507487
9.76323,518704
9.768,554703
9.77277,536916
9.77752,487472
9.78228,525385
9.78705,511335
9.7918,508745
9.79657,510377
9.80133,510284
9.8061,517558
9.81085,502404
9.81562,522516
9.82038,501007
9.82513,510239
9.8299,502227
9.83467,500934
9.83943,507379
9.84418,537573
9.84895,509107
9.85372,495070
9.85847,515813
9.86323,511149
9.868,524666
9.87277,507626
9.87752,504301
9.88228,476795
9.88705,502447
9.8918,529543
9.89657,516912
9.90133,500420
9.9061,487382
9.91085,492310
9.91562,495456
9.92038,484196
9.92515,481154
9.9299,499749
9.93467,461907
9.93943,494859
9.94418,466131
9.94895,529874
9.95372,524061
9.95848,561287
9.96323,562437
9.968,560254
9.97277,605972
9.97752,660228
9.98228,692190
9.98705,732050
9.99182,771130
9.99657,755327
10.0013,750218
10.0061,701303
10.0109,639290
10.0156,597049
10.0204,575975
10.0252,542962
10.0299,546777
10.0347,539330
10.0394,526897
10.0442,500529
10.049,509269
10.0537,498158
10.0585,502365
10.0632,513426
10.068,518113
10.0728,515260
10.0775,528432
10.0823,522585
10.0871,541148
10.0918,564193
10.0966,566732
10.1013,565072
10.1061,579573
10.1109,591226
10.1156,624611
10.1204,608810
10.1252,684210
10.1299,631620
10.1347,612109
10.1394,595305
10.1442,593239
10.149,531849
10.1537,570965
10.1585,545535
10.1632,539246
10.168,549260
10.1728,541472
10.1775,544881
10.1823,578971
10.1871,561279
10.1918,556076
10.1966,611842
10.2013,643918
10.2061,660776
10.2109,609369
10.2156,613015
10.2204,613609
10.2252,552627
10.2299,572345
10.2347,527014
10.2394,531444
10.2442,508003
10.249,537991
10.2537,528440
10.2585,522664
10.2633,488179
10.268,525138
10.2728,521477
10.2775,516491
10.2823,495073
10.2871,491236
10.2918,499020
10.2966,501664
10.3013,535448
10.3061,544706
10.3109,533616
10.3156,535796
10.3204,548058
10.3252,517292
10.3299,515329
10.3347,526735
10.3394,499667
10.3442,470824
10.349,522404
10.3537,475787
10.3585,508710
10.3633,484301
10.368,525949
10.3728,518524
10.3775,498955
10.3823,529780
10.3871,510621
10.3918,528338
10.3966,503318
10.4013,469212
10.4061,519714
10.4109,521997
10.4156,473827
10.4204,527942
10.4252,525107
10.4299,530727
10.4347,558808
10.4394,548530
10.4442,525625
10.449,525184
10.4537,538284
10.4585,502692
10.4633,526234
10.468,507394
10.4728,510372
10.4775,511584
10.4823,549437
10.4871,543060
10.4918,552609
10.4966,654812
10.5013,658526
10.5061,685987
10.5109,751173
10.5156,755197
10.5204,685940
10.5252,644581
10.5299,607544
10.5347,567244
10.5394,547329
10.5442,547001
10.549,524509
10.5537,524614
10.5585,553757
10.5633,536987
10.568,575727
10.5728,558394
10.5775,550991
10.5823,534008
10.5871,537638
10.5918,539851
10.5966,554754
10.6014,558445
10.6061,536466
10.6109,502083
10.6156,524706
10.6204,543060
10.6252,517531
10.6299,531498
10.6347,504968
10.6394,508034
10.6442,492388
10.649,506810
10.6537,506017
10.6585,485566
10.6633,507624
10.668,485976
10.6728,512726
10.6775,537917
10.6823,501318
10.6871,539715
10.6918,554531
10.6966,578658
10.7014,640908
10.7061,593344
10.7109,634059
10.7156,607309
10.7204,598911
10.7252,568671
10.7299,562196
10.7347,555648
10.7394,555717
10.7442,532987
10.749,542105
10.7537,575978
10.7585,664271
10.7633,746394
10.768,912284
10.7728,1080737
10.7775,1226584
10.7823,1190950
10.7871,1031625
10.7918,916211
10.7966,812236
10.8014,743061
10.8061,674141
10.8109,621404
10.8156,604800
10.8204,606271
10.8252,612451
10.8299,624460
10.8347,618270
10.8394,637856
10.8442,642734
10.849,650565
10.8537,709041
10.8585,705436
10.8633,664133
10.868,635966
10.8728,623035
10.8775,621951
10.8823,619217
10.8871,628237
10.8918,610218
10.8966,596436
10.9014,602196
10.9061,571427
10.9109,560063
10.9156,573666
10.9204,639453
10.9252,617775
10.9299,616879
10.9347,642049
10.9395,638724
10.9442,675958
10.949,681879
10.9537,788490
10.9585,861186
10.9633,946072
10.968,1045235
10.9728,1056351
10.9775,952646
10.9823,865786
10.9871,776015
10.9918,733128
10.9966,684298
11.0014,722970
11.0061,888852
11.0109,1116810
11.0156,1464269
11.0204,1694835
11.0252,1842416
11.0299,1754910
11.0347,1613522
11.0395,1321783
11.0442,1145282
11.049,949311
11.0537,867594
11.0585,835879
11.0633,771437
11.068,768740
11.0728,716382
11.0775,698520
11.0823,712052
11.0871,764620
11.0918,694312
11.0966,784522
11.1014,823576
11.1061,888682
11.1109,876781
11.1156,879015
11.1204,826804
11.1252,738160
11.1299,718579
11.1347,674040
11.1395,642859
11.1442,634032
11.149,616048
11.1537,680699
11.1585,647178
11.1633,627679
11.168,606803
11.1728,630616
11.1775,605503
11.1823,609580
11.1871,603086
11.1918,572879
11.1966,594396
11.2014,646108
11.2061,632629
11.2109,634839
11.2156,659384
11.2204,645668
11.2252,651032
11.2299,672581
11.2347,773491
11.2395,793786
11.2442,787876
11.249,816591
11.2537,805284
11.2585,756994
11.2633,733301
11.268,673187
11.2728,660408
11.2776,683639
11.2823,649304
11.2871,657202
11.2918,650763
11.2966,647430
11.3014,625387
11.3061,638665
11.3109,636051
11.3156,596817
11.3204,644608
11.3252,616702
11.3299,576893
11.3347,589832
11.3395,592605
11.3442,574761
11.349,603043
11.3537,576316
11.3585,562916
11.3633,577858
11.368,608157
11.3728,596936
11.3776,606774
11.3823,589560
11.3871,593346
11.3918,604759
11.3966,630836
11.4014,588764
11.4061,598485
11.4109,588445
11.4156,582599
11.4204,605847
11.4252,641665
11.4299,660574
11.4347,675728
11.4395,658836
11.4442,665296
11.449,648143
11.4537,647248
11.4585,647872
11.4633,614157
11.468,617086
11.4728,589343
11.4776,610482
11.4823,620975
11.4871,617444
11.4918,651602
11.4966,640135
11.5014,640846
11.5061,627446
11.5109,603263
11.5156,609139
11.5204,597581
11.5252,610242
11.5299,617098
11.5347,605705
11.5395,632050
11.5442,603936
11.549,632252
11.5537,599994
11.5585,653440
11.5633,604169
11.568,590959
11.5728,584266
11.5776,592178
11.5823,617262
11.5871,643322
11.5918,679518
11.5966,749215
11.6014,751512
11.6061,781773
11.6109,767110
11.6156,749045
11.6204,708892
11.6252,693492
11.6299,687829
11.6347,638149
11.6395,624969
11.6442,584558
11.649,679866
11.6537,723354
11.6585,914953
11.6633,1014839
11.668,1132102
11.6728,1095661
11.6776,985468
11.6823,911295
11.6871,757120
11.6918,720759
11.6966,710754
11.7014,793433
11.7061,819573
11.7109,789199
11.7157,787670
11.7204,718264
11.7252,713347
11.7299,636464
11.7347,626296
11.7395,609869
11.7442,632359
11.749,642087
11.7537,634956
11.7585,631389
11.7633,629991
11.768,644714
11.7728,704834
11.7776,763171
11.7823,799345
11.7871,809369
11.7918,810649
11.7966,803495
11.8014,745621
11.8061,741832
11.8109,731243
11.8157,688513
11.8204,708518
11.8252,702934
11.8299,652927
11.8347,692138
11.8395,679589
11.8442,668184
11.849,702228
11.8537,689553
11.8585,670144
11.8633,672421
11.868,720823
11.8728,673940
11.8776,679477
11.8823,687517
11.8871,660197
11.8918,644732
11.8966,671006
11.9014,654539
11.9061,686213
11.9109,666956
11.9157,655325
11.9204,668128
11.9252,675163
11.9299,660657
11.9347,694486
11.9395,670006
11.9442,650275
11.949,675891
11.9537,696205
11.9585,736586
11.9633,765540
11.968,773563
11.9728,774659
11.9776,759557
11.9823,736032
11.9871,718145
11.9918,711241
11.9966,696836
12.0014,727705
12.0061,766361
12.0109,748007
12.0157,755187
12.0204,827618
12.0252,837695
12.0299,867133
12.0347,877448
12.0395,816881
12.0442,809630
12.049,798447
12.0538,797543
12.0585,760012
12.0633,751032
12.068,759414
12.0728,727995
12.0776,739880
12.0823,728793
12.0871,756727
12.0918,727672
12.0966,724210
12.1014,741276
12.1061,818934
12.1109,839783
12.1157,1059822
12.1204,1241433
12.1252,1399487
12.1299,1361531
12.1347,1212567
12.1395,1091401
12.1442,1002653
12.149,848085
12.1538,827661
12.1585,763202
12.1633,740220
12.168,777943
12.1728,738537
12.1776,771397
12.1823,756747
12.1871,768226
12.1918,774113
12.1966,719023
12.2014,724526
12.2061,715142
12.2109,720985
12.2157,717961
12.2204,721106
12.2252,721811
12.2299,720697
12.2347,731333
12.2395,754233
12.2442,736726
12.249,711838
12.2538,684484
12.2585,715396
12.2633,709311
12.268,707894
12.2728,667968
12.2776,707646
12.2823,705911
12.2871,797231
12.2918,1140222
12.2966,2226114
12.3014,5126533
12.3061,10415313
12.3109,17322082
12.3157,22343154
12.3204,24443130
12.3252,21738842
12.3299,15080825
12.3347,8369251
12.3395,4052424
12.3442,2103179
12.349,1257964
12.3538,995126
12.3585,931346
12.3633,900648
12.368,872208
12.3728,913560
12.3776,926368
12.3823,949363
12.3871,949221
12.3919,926841
12.3966,976814
12.4014,874875
12.4061,914840
12.4109,897013
12.4157,906086
12.4204,941583
12.4252,879810
12.4299,912570
12.4347,941732
12.4395,1067106
12.4442,1159515
12.449,1234197
12.4538,1172728
12.4585,1077298
12.4633,979236
12.468,899896
12.4728,900261
12.4776,916094
12.4823,1001625
12.4871,1055387
12.4919,1132220
12.4966,1085789
12.5014,964120
12.5061,978702
12.5109,903801
12.5157,876902
12.5204,803947
12.5252,800296
12.5299,799439
12.5347,795545
12.5395,814307
12.5442,827523
12.549,837930
12.5538,815995
12.5585,800573
12.5633,781010
12.568,801661
12.5728,760206
12.5776,733640
12.5823,762854
12.5871,805433
12.5919,819779
12.5966,795303
12.6014,827833
12.6061,907012
12.6109,1037118
12.6157,1089191
12.6204,1249937
12.6252,1297448
12.6299,1250712
12.6347,1187152
12.6395,1116901
12.6442,974923
12.649,934553
12.6538,880702
12.6585,819415
12.6633,824536
12.668,813054
12.6728,800269
12.6776,834508
12.6823,822130
12.6871,804159
12.6919,809934
12.6966,807973
12.7014,766022
12.7061,759020
12.7109,752170
12.7157,809448
12.7204,756000
12.7252,780957
12.73,742921
12.7347,750598
12.7395,728264
12.7442,749865
12.749,725365
12.7538,771516
12.7585,724923
12.7633,748560
12.768,729101
12.7728,737983
12.7776,779776
12.7823,783246
12.7871,787125
12.7919,792786
12.7966,811651
12.8014,791601
12.8061,763908
12.8109,753242
12.8157,781478
12.8204,801443
12.8252,778208
12.83,773069
12.8347,777362
12.8395,736765
12.8442,759047
12.849,739113
12.8538,768639
12.8585,776642
12.8633,744323
12.868,739670
12.8728,737386
12.8776,757324
12.8823,759606
12.8871,740587
12.8919,719673
12.8966,746135
12.9014,765882
12.9061,791610
12.9109,802369
12.9157,765426
12.9204,769207
12.9252,727169
12.93,766746
12.9347,740716
12.9395,757393
12.9442,715567
12.949,741762
12.9538,729609
12.9585,726423
12.9633,757693
12.968,754859
12.9728,737281
12.9776,769190
12.9823,746921
12.9871,769254
12.9919,818955
12.9966,783092
13.0014,811693
13.0061,806164
13.0109,793856
13.0157,808131
13.0204,796540
13.0252,788014
13.03,791295
13.0347,757579
13.0395,756456
13.0442,821398
13.049,839459
13.0538,990343
13.0585,1295096
13.0633,1713075
13.0681,2126243
13.0728,2307820
13.0776,2154803
13.0823,1946424
13.0871,1456045
13.0919,1152072
13.0966,992885
13.1014,909236
13.1061,859225
13.1109,836243
13.1157,846005
13.1204,823672
13.1252,868510
13.13,882802
13.1347,906522
13.1395,939636
13.1442,872319
13.149,915126
13.1538,1014972
13.1585,1013187
13.1633,1059117
13.1681,1037213
13.1728,1029881
13.1776,953256
13.1823,928703
13.1871,959537
13.1919,1106862
13.1966,1305428
13.2014,1625717
13.2061,1767139
13.2109,1795260
13.2157,1637972
13.2204,1437368
13.2252,1133555
13.23,987609
13.2347,881882
13.2395,875809
13.2442,857907
13.249,845435
13.2538,845841
13.2585,852199
13.2633,793573
13.2681,804322
13.2728,818662
13.2776,800911
13.2823,775195
13.2871,797383
13.2919,817485
13.2966,775595
13.3014,811715
13.3061,833243
13.3109,833193
13.3157,824119
13.3204,831372
13.3252,831551
13.33,792681
13.3347,816361
13.3395,796059
13.3442,838612
13.349,833658
13.3538,795999
13.3585,816851
13.3633,821036
13.3681,786581
13.3728,814733
13.3776,819045
13.3823,829176
13.3871,805123
13.3919,769586
13.3966,776621
13.4014,768090
13.4062,864655
13.4109,846716
13.4157,999678
13.4204,1109840
13.4252,1215848
13.43,1268880
13.4347,1269917
13.4395,1208149
13.4442,1095219
13.449,978990
13.4538,913132
13.4585,875432
13.4633,907932
13.4681,924879
13.4728,909831
13.4776,921169
13.4823,934394
13.4871,911184
13.4919,963881
13.4966,1122131
13.5014,1305667
13.5062,1491652
13.5109,1558105
13.5157,1503711
13.5204,1311518
13.5252,1111380
13.53,965658
13.5347,884074
13.5395,848025
13.5442,871904
13.549,788517
13.5538,796211
13.5585,820743
13.5633,808557
13.5681,861288
13.5728,775444
13.5776,805025
13.5823,830287
13.5871,794914
13.5919,818802
13.5966,799535
13.6014,819038
13.6062,793835
13.6109,802713
13.6157,871827
13.6204,827194
13.6252,847480
13.63,843915
13.6347,849631
13.6395,831602
13.6442,871422
13.649,867304
13.6538,832079
13.6585,804665
13.6633,844141
13.6681,807934
13.6728,814807
13.6776,824217
13.6823,809962
13.6871,760766
13.6919,800754
13.6966,764544
13.7014,794314
13.7062,808548
13.7109,815105
13.7157,773701
13.7204,797068
13.7252,786411
13.73,816882
13.7347,789128
13.7395,750256
13.7443,769524
13.749,777123
13.7538,782137
13.7585,814605
13.7633,835715
13.7681,817834
13.7728,763403
13.7776,779062
13.7823,757235
13.7871,762345
13.7919,755418
13.7966,768478
13.8014,761051
13.8062,774737
13.8109,769989
13.8157,739110
13.8204,764797
13.8252,753509
13.83,760968
13.8347,740023
13.8395,771039
13.8443,749785
13.849,795637
13.8538,780909
13.8585,841287
13.8633,893486
13.8681,851615
13.8728,962066
13.8776,966224
13.8823,1052813
13.8871,1062274
13.8919,1147944
13.8966,1292253
13.9014,1322196
13.9062,1319795
13.9109,1204493
13.9157,1251226
13.9204,937867
13.9252,918402
13.93,874241
13.9347,835723
13.9395,879920
13.9443,888847
13.949,864433
13.9538,842116
13.9585,855103
13.9633,894069
13.9681,911414
13.9728,867964
13.9776,908868
13.9823,928187
13.9871,941209
13.9919,952025
13.9966,878944
14.0014,926653
14.0062,857092
14.0109,834857
14.0157,839488
14.0204,813867
14.0252,822088
14.03,853975
14.0347,893944
14.0395,1038615
14.0443,1209915
14.049,1555749
14.0538,1779722
14.0585,1879538
14.0633,1751467
14.0681,1482298
14.0728,1230706
14.0776,1050397
14.0824,1012062
14.0871,922509
14.0919,900643
14.0966,874080
14.1014,879659
14.1062,868916
14.1109,843447
14.1157,822893
14.1204,805333
14.1252,864925
14.13,856674
14.1347,909538
14.1395,908728
14.1443,963414
14.149,1028460
14.1538,1066460
14.1585,1085590
14.1633,1044660
14.1681,972247
14.1728,910711
14.1776,882810
14.1824,841699
14.1871,898698
14.1919,919431
14.1966,965499
14.2014,1029015
14.2062,1068282
14.2109,1097281
14.2157,1096831
14.2204,1036500
14.2252,1066403
14.23,1217997
14.2347,1369226
14.2395,1475065
14.2443,1450249
14.249,1236572
14.2538,1161426
14.2585,1053255
14.2633,1027077
14.2681,1021605
14.2728,952417
14.2776,943846
14.2824,866741
14.2871,904081
14.2919,861056
14.2966,886337
14.3014,862690
14.3062,884130
14.3109,883299
14.3157,885103
14.3204,904101
14.3252,907125
14.33,944367
14.3347,926338
14.3395,912551
14.3443,908612
14.349,904677
14.3538,905124
14.3585,949562
14.3633,950939
14.3681,1036625
14.3728,1133158
14.3776,1219923
14.3824,1384431
14.3871,1463549
14.3919,1546657
14.3966,1572534
14.4014,1555281
14.4062,1481522
14.4109,1324634
14.4157,1106487
14.4205,1062047
14.4252,980408
14.43,918053
14.4347,910292
14.4395,930735
14.4443,946049
14.449,974852
14.4538,929822
14.4585,973220
14.4633,921950
14.4681,909118
14.4728,959545
14.4776,931651
14.4824,977499
14.4871,1003172
14.4919,1030416
14.4966,990609
14.5014,1006665
14.5062,1009080
14.5109,903235
14.5157,940922
14.5205,936257
14.5252,961997
14.53,952047
14.5347,919063
14.5395,918725
14.5443,935543
14.549,883625
14.5538,898742
14.5585,936908
14.5633,894155
14.5681,876084
14.5728,908714
14.5776,890818
14.5824,923168
14.5871,925415
14.5919,870699
14.5966,897408
14.6014,873678
14.6062,874778
14.6109,913910
14.6157,889031
14.6205,878623
14.6252,881219
14.63,914843
14.6347,875840
14.6395,876981
14.6443,878326
14.649,967695
14.6538,921484
14.6585,900341
14.6633,907852
14.6681,939881
14.6728,968730
14.6776,921157
14.6824,916077
14.6871,938576
14.6919,938514
14.6966,888849
14.7014,975120
14.7062,934443
14.7109,894633
14.7157,907015
14.7205,918951
14.7252,945555
14.73,933624
14.7347,926961
14.7395,909280
14.7443,965616
14.749,973213
14.7538,1010439
14.7586,990861
14.7633,992532
14.7681,979875
14.7728,920618
14.7776,902151
14.7824,942600
14.7871,933131
14.7919,926246
14.7966,882560
14.8014,883933
14.8062,914485
14.8109,881630
14.8157,877624
14.8205,913466
14.8252,917029
14.83,862094
14.8347,951598
14.8395,917412
14.8443,848444
14.849,925940
14.8538,915873
14.8586,899934
14.8633,911757
14.8681,934455
14.8728,856586
14.8776,886634
14.8824,894390
14.8871,894881
14.8919,919648
14.8966,915843
14.9014,909412
14.9062,890099
14.9109,887377
14.9157,886726
14.9205,892012
14.9252,904392
14.93,909601
14.9347,918354
14.9395,949855
14.9443,892930
14.949,894096
14.9538,875151
14.9586,921164
14.9633,891083
14.9681,877072
14.9728,938156
14.9776,902343
14.9824,904838
14.9871,886163
14.9919,894462
14.9966,855612
15.0014,900939
15.0062,916430
15.0109,901678
15.0157,885259
15.0205,906807
15.0252,887053
15.03,900905
15.0347,888721
15.0395,894906
15.0443,929055
15.049,935184
15.0538,886424
15.0586,889306
15.0633,942011
15.0681,927584
15.0728,916165
15.0776,903315
15.0824,944135
15.0871,963132
15.0919,946336
15.0967,901829
15.1014,893016
15.1062,882955
15.1109,935188
15.1157,918017
15.1205,913888
15.1252,970986
15.13,905730
15.1347,920060
15.1395,927205
15.1443,908571
15.149,958972
15.1538,936087
15.1586,950630
15.1633,999999
15.1681,957859
15.1728,981034
15.1776,985138
15.1824,992470
15.1871,1001432
15.1919,1005943
15.1967,1007154
15.2014,1014079
15.2062,1070935
15.2109,1125843
15.2157,1167009
15.2205,1295894
15.2252,1443235
15.23,1435970
15.2347,1487280
15.2395,1441309
15.2443,1320096
15.249,1192482
15.2538,1243171
15.2586,1160239
15.2633,1088966
15.2681,1071427
15.2728,1038447
15.2776,1006824
15.2824,1000671
15.2871,1019603
15.2919,1016279
15.2967,1002186
15.3014,980433
15.3062,966075
15.3109,996068
15.3157,971855
15.3205,1027360
15.3252,1016749
15.33,957181
15.3347,1009114
15.3395,984879
15.3443,1003588
15.349,1009087
15.3538,994502
15.3586,982631
15.3633,978033
15.3681,1004731
15.3728,984057
15.3776,981302
15.3824,997639
15.3871,978490
15.3919,982290
15.3967,989975
15.4014,994032
15.4062,1023617
15.4109,1026031
15.4157,982265
15.4205,1006784
15.4252,981150
15.43,1026879
15.4348,1006474
15.4395,996758
15.4443,961870
15.449,1013211
15.4538,995784
15.4586,1036701
15.4633,1060298
15.4681,1095355
15.4728,1095776
15.4776,1093712
15.4824,1107554
15.4871,1061800
15.4919,1021602
15.4967,990447
15.5014,992057
15.5062,1055129
15.5109,1015649
15.5157,1048150
15.5205,1113187
15.5252,1154432
15.53,1245048
15.5348,1270764
15.5395,1223831
15.5443,1176255
15.549,1140410
15.5538,1105463
15.5586,1059117
15.5633,1083492
15.5681,1096028
15.5728,1077798
15.5776,1049367
15.5824,1053147
15.5871,1054266
15.5919,1056437
15.5967,1027732
15.6014,1084108
15.6062,1025115
15.6109,984604
15.6157,1045808
15.6205,1075322
15.6252,1025771
15.63,1089026
15.6348,1065014
15.6395,1089370
15.6443,1087532
15.649,1070430
15.6538,1085952
15.6586,1059942
15.6633,1071661
15.6681,1075643
15.6728,1092986
15.6776,1151950
15.6824,1174624
15.6871,1197009
15.6919,1198929
15.6967,1165755
15.7014,1128621
15.7062,1166264
15.7109,1120967
15.7157,1097511
15.7205,1124535
15.7252,1153507
15.73,1210849
15.7348,1221152
15.7395,1295291
15.7443,1357669
15.749,1546606
15.7538,1702194
15.7586,1730379
15.7633,1598798
15.7681,1480593
15.7729,1304520
15.7776,1218400
15.7824,1163048
15.7871,1261432
15.7919,1221081
15.7967,1206831
15.8014,1206950
15.8062,1264733
15.8109,1246933
15.8157,1196092
15.8205,1220711
15.8252,1223142
15.83,1186590
15.8348,1213637
15.8395,1175624
15.8443,1220647
15.849,1284518
15.8538,1341635
15.8586,1514626
15.8633,1562391
15.8681,1678405
15.8729,1680191
15.8776,1526128
15.8824,1417601
15.8871,1388160
15.8919,1329449
15.8967,1315680
15.9014,1331107
15.9062,1303133
15.9109,1231754
15.9157,1255977
15.9205,1251083
15.9252,1295924
15.93,1233074
15.9348,1266567
15.9395,1269298
15.9443,1266021
15.949,1312462
15.9538,1294222
15.9586,1283215
15.9633,1322528
15.9681,1340746
15.9729,1268309
15.9776,1265483
15.9824,1304729
15.9871,1281767
15.9919,1313000
15.9967,1292305
16.0014,1323146
16.0062,1290827
16.0109,1352323
16.0157,1431813
16.0205,1592853
16.0252,1748587
16.03,1827571
16.0347,1742992
16.0395,1523873
16.0443,1410733
16.049,1424919
16.0538,1409648
16.0586,1404516
16.0633,1415247
16.0681,1393720
16.0728,1415514
16.0776,1385257
16.0824,1353194
16.0871,1316165
16.0919,1417730
16.0967,1484053
16.1014,1434776
16.1062,1508659
16.1109,1528751
16.1157,1585544
16.1205,1546604
16.1252,1567258
16.13,1523905
16.1348,1525368
16.1395,1424234
16.1443,1437646
16.149,1434742
16.1538,1476426
16.1586,1467104
16.1633,1504946
16.1681,1453707
16.1729,1377902
16.1776,1428104
16.1824,1457759
16.1871,1496480
16.1919,1500288
16.1967,1427520
16.2014,1502223
16.2062,1503452
16.211,1537166
16.2157,1524611
16.2205,1501740
16.2252,1550892
16.23,1580337
16.2347,1496624
16.2395,1573556
16.2443,1548879
16.249,1503914
16.2538,1551408
16.2586,1590629
16.2633,1553918
16.2681,1535144
16.2728,1550337
16.2776,1587262
16.2824,1514451
16.2871,1585410
16.2919,1612323
16.2967,1544132
16.3014,1585015
16.3062,1627811
16.3109,1632329
16.3157,1580598
16.3205,1571456
16.3252,1650344
16.33,1635548
16.3348,1638710
16.3395,1629548
16.3443,1687816
16.349,1655894
16.3538,1704722
16.3586,1698871
16.3633,1747833
16.3681,1819044
16.3729,1847337
16.3776,1818546
16.3824,1870163
16.3871,1874006
16.3919,1985095
16.3967,2045049
16.4014,2116220
16.4062,2239284
16.411,2462126
16.4157,2539128
16.4205,2363802
16.4252,2036900
16.43,1989633
16.4348,1929437
16.4395,2346724
16.4443,3637701
16.4491,6900490
16.4538,11089579
16.4586,13436714
16.4633,10784150
16.4681,6991482
16.4729,4087124
16.4776,2879355
16.4824,2301912
16.4871,2184669
16.4919,2112904
16.4967,2010343
16.5014,2039691
16.5062,2055215
16.511,2095020
16.5157,2013954
16.5205,2081799
16.5252,2050300
16.53,2090503
16.5347,2018984
16.5395,2031358
16.5443,2095868
16.5491,2060521
16.5538,1969254
16.5586,2013845
16.5633,2091170
16.5681,2106890
16.5728,1975937
16.5776,2014139
16.5824,2051049
16.5871,2058590
16.5919,2054697
16.5967,2034189
16.6014,2085326
16.6062,2093437
16.6109,2098578
16.6157,2171604
16.6205,2283796
16.6252,2204504
16.63,2237588
16.6348,2104801
16.6395,2122099
16.6443,2084624
16.649,2126364
16.6538,2147370
16.6586,2224123
16.6633,2179989
16.6681,2202925
16.6729,2157247
16.6776,2165679
16.6824,2140986
16.6871,2114050
16.6919,2132514
16.6967,2187316
16.7014,2111586
16.7062,2166544
16.711,2103184
16.7157,2192201
16.7205,2147260
16.7252,2158585
16.73,2241277
16.7348,2240535
16.7395,2251848
16.7443,2196356
16.7491,2287894
16.7538,2264564
16.7586,2232804
16.7633,2174670
16.7681,2214701
16.7728,2284290
16.7776,2224861
16.7824,2234282
16.7872,2284839
16.7919,2273567
16.7967,2301841
16.8014,2342592
16.8062,2398221
16.8109,2364911
16.8157,2322768
16.8205,2334525
16.8252,2305542
16.83,2313440
16.8348,2368163
16.8395,2389595
16.8443,2336796
16.849,2334734
16.8538,2385405
16.8586,2500049
16.8633,2511427
16.8681,2502201
16.8729,2401101
16.8776,2366627
16.8824,2364302
16.8871,2353440
16.8919,2357060
16.8967,2386474
16.9014,2326318
16.9062,2362668
16.911,2460435
16.9157,2457447
16.9205,2408585
16.9252,2539771
16.93,2516007
16.9348,2509318
16.9395,2530645
16.9443,2470412
16.9491,2448244
16.9538,2489671
16.9586,2513728
16.9633,2534790
16.9681,2471767
16.9729,2563891
16.9776,2555762
16.9824,2642920
16.9872,2667765
16.9919,2675776
16.9967,2627758
17.0014,2597175
17.0062,2682215
17.011,2847689
17.0157,2998923
17.0205,2992668
17.0252,2857506
17.03,2748394
17.0348,2589741
17.0395,2604984
17.0443,2575966
17.0491,2609224
17.0538,2547597
17.0586,2534617
17.0633,2585952
17.0681,2580717
17.0729,2559386
17.0776,2532325
17.0824,2618310
17.0872,2586490
17.0919,2576508
17.0967,2558053
17.1014,2580266
17.1062,2671806
17.1109,2660016
17.1157,2556939
17.1205,2707588
17.1252,2835210
17.13,3446094
17.1348,5107159
17.1395,7901471
17.1443,9925569
17.149,9575668
17.1538,7309312
17.1586,5115678
17.1633,3807802
17.1681,3201957
17.1729,2979714
17.1776,2969660
17.1824,2852451
17.1872,2832284
17.1919,2868696
17.1967,2855123
17.2014,2798960
17.2062,2784592
17.211,2787184
17.2157,2797019
17.2205,2765927
17.2252,2737139
17.23,2728798
17.2348,2781392
17.2395,2782138
17.2443,2703184
17.2491,2805034
17.2538,2756881
17.2586,2772466
17.2633,2765288
17.2681,2818783
17.2729,2843356
17.2776,2805378
17.2824,2775155
17.2872,2774796
17.2919,2896370
17.2967,2975368
17.3014,3593904
17.3062,5332155
17.311,8579293
17.3157,11576745
17.3205,11845771
17.3253,9202562
17.33,6295589
17.3348,4513977
17.3395,3745298
17.3443,3239166
17.349,3116154
17.3538,3036131
17.3586,3028301
17.3633,2900883
17.3681,2909468
17.3729,2941865
17.3776,2924793
17.3824,2922415
17.3871,2948381
17.3919,2891661
17.3967,2939387
17.4014,2874072
17.4062,2842496
17.411,2861159
17.4157,2906212
17.4205,2857364
17.4252,2933194
17.43,2853827
17.4348,2895791
17.4395,2856354
17.4443,2947361
17.4491,2858624
17.4538,2896089
17.4586,2893056
17.4633,2932440
17.4681,3025121
17.4729,2968346
17.4776,2918818
17.4824,2949551
17.4872,2969463
17.4919,3026426
17.4967,2973865
17.5014,2995455
17.5062,2954484
17.511,2958960
17.5157,2909915
17.5205,2915831
17.5253,2989719
17.53,2981093
17.5348,3012499
17.5395,2941444
17.5443,2939950
17.5491,2995666
17.5538,2960453
17.5586,2945996
17.5634,2978829
17.5681,3017432
17.5729,2959101
17.5776,2993025
17.5824,2954570
17.5872,2973434
17.5919,2961944
17.5967,3102423
17.6014,3246852
17.6062,3371669
17.611,3436202
17.6157,3323456
17.6205,3123006
17.6253,3023742
17.63,2945064
17.6348,3031007
17.6395,3165265
17.6443,3587508
17.6491,5559407
17.6538,10818336
17.6586,20968866
17.6634,33392372
17.6681,36163704
17.6729,28682754
17.6776,17990294
17.6824,10521022
17.6872,6748197
17.6919,5086566
17.6967,4379411
17.7014,3979243
17.7062,3759205
17.711,3624492
17.7157,3552132
17.7205,3442989
17.7253,3389831
17.73,3258362
17.7348,3220688
17.7395,3194275
17.7443,3217698
17.7491,3105492
17.7538,3176340
17.7586,3199304
17.7633,3266864
17.7681,3353773
17.7729,3412910
17.7776,3693046
17.7824,4134228
17.7872,4435199
17.7919,4484475
17.7967,4181920
17.8014,3748577
17.8062,3571291
17.811,3397687
17.8157,3260808
17.8205,3157996
17.8253,3155120
17.83,3160440
17.8348,3162349
17.8395,3098807
17.8443,3088945
17.8491,3097101
17.8538,3079217
17.8586,3070031
17.8634,3095265
17.8681,3158235
17.8729,3193747
17.8776,3373386
17.8824,3364678
17.8872,3428454
17.8919,3433112
17.8967,3433456
17.9015,3428616
17.9062,3481556
17.911,3619925
17.9157,3826969
17.9205,3710561
17.9253,3694848
17.93,3556622
17.9348,3419871
17.9395,3215422
17.9443,3255259
17.9491,3200021
17.9538,3259982
17.9586,3268470
17.9634,3328836
17.9681,3166660
17.9729,3125678
17.9776,3113472
17.9824,3151767
17.9872,3172771
17.9919,3137174
17.9967,3035282
18.0015,3117674
18.0062,3067584
18.011,3060791
18.0157,3061573
18.0205,3086847
18.0253,3104949
18.03,3151099
18.0348,3099198
18.0395,3140606
18.0443,3198409
18.0491,3032833
18.0538,3087955
18.0586,3109505
18.0634,3107726
18.0681,3214356
18.0729,3453032
18.0776,4729523
18.0824,8195637
18.0872,16802594
18.0919,32015730
18.0967,48477260
18.1015,53185716
18.1062,44126388
18.111,29994908
18.1157,18233748
18.1205,11090769
18.1253,7560294
18.13,5935681
18.1348,5190590
18.1395,4696603
18.1443,4697593
18.1491,4849456
18.1538,5364578
18.1586,5728814
18.1634,5796092
18.1681,5413359
18.1729,4922984
18.1776,4339414
18.1824,4037730
18.1872,3786456
18.1919,3616067
18.1967,3493196
18.2015,3496388
18.2062,3438618
18.211,3285849
18.2157,3353395
18.2205,3353842
18.2253,3295279
18.23,3278631
18.2348,3346692
18.2396,3345088
18.2443,3261376
18.2491,3288442
18.2538,3217577
18.2586,3222722
18.2634,3368616
18.2681,3621119
18.2729,4373043
18.2776,7027387
18.2824,12633989
18.2872,22402674
18.2919,31950556
18.2967,35874112
18.3014,30609972
18.3062,21961286
18.311,14183796
18.3157,9238507
18.3205,6824284
18.3253,5455381
18.33,4777984
18.3348,4452805
18.3395,4154680
18.3443,4015260
18.3491,3920563
18.3538,3716763
18.3586,3753804
18.3634,3653418
18.3681,3590870
18.3729,3501217
18.3776,3437072
18.3824,3461512
18.3872,3450062
18.3919,3415757
18.3967,3299304
18.4015,3288207
18.4062,3322625
18.411,3333380
18.4157,3264748
18.4205,3296323
18.4253,3286023
18.43,3257448
18.4348,3208407
18.4396,3196124
18.4443,3214571
18.4491,3178008
18.4538,3220066
18.4586,3217064
18.4634,3249721
18.4681,3190648
18.4729,3216326
18.4776,3248071
18.4824,3144551
18.4872,3185021
18.4919,3153205
18.4967,3184081
18.5015,3230721
18.5062,3186428
18.511,3175189
18.5157,3096229
18.5205,3207959
18.5253,3232562
18.53,3183873
18.5348,3184169
18.5396,3237177
18.5443,3153830
18.5491,3122256
18.5538,3087415
18.5586,3126804
18.5634,3156911
18.5681,3211660
18.5729,3132429
18.5777,3153079
18.5824,3114531
18.5872,3127699
18.5919,3158404
18.5967,3180874
18.6015,3130840
18.6062,3210617
18.611,3176527
18.6157,3161084
18.6205,3383886
18.6253,3454015
18.63,3663753
18.6348,3567400
18.6396,3564851
18.6443,3523647
18.6491,3351582
18.6538,3356844
18.6586,3175122
18.6634,3221660
18.6681,3312092
18.6729,3409881
18.6777,3640714
18.6824,4583310
18.6872,6733131
18.6919,11090793
18.6967,17242570
18.7015,22773958
18.7062,25218500
18.711,22816022
18.7157,17316056
18.7205,12043753
18.7253,8307871
18.73,6117432
18.7348,5064256
18.7396,4519154
18.7443,4128942
18.7491,3812490
18.7538,3723838
18.7586,3565646
18.7634,3560096
18.7681,3467960
18.7729,3496507
18.7777,3296844
18.7824,3283354
18.7872,3412802
18.7919,3265299
18.7967,3338059
18.8015,3218399
18.8062,3246629
18.811,3264229
18.8157,3258197
18.8205,3232462
18.8253,3238542
18.83,3401972
18.8348,3569656
18.8395,3800076
18.8443,4136749
18.8491,4324018
18.8538,4315306
18.8586,4242134
18.8634,3979684
18.8681,3672179
18.8729,3626973
18.8776,3429302
18.8824,3328347
18.8872,3287507
18.8919,3302871
18.8967,3201902
18.9015,3263507
18.9062,3181657
18.911,3190403
18.9157,3209518
18.9205,3205010
18.9253,3187179
18.93,3193966
18.9348,3185567
18.9396,3188327
18.9443,3196875
18.9491,3178927
18.9538,3085637
18.9586,3134181
18.9634,3204850
18.9681,3153118
18.9729,3230703
18.9777,3119217
18.9824,3174038
18.9872,3130197
18.9919,3065005
18.9967,3135192
19.0015,3133643
19.0062,3234013
19.011,3225471
19.0158,3037814
19.0205,3143889
19.0253,3124537
19.03,3087569
19.0348,3108657
19.0396,3146827
19.0443,3138934
19.0491,3180110
19.0538,3076421
19.0586,3188156
19.0634,3075565
19.0681,3140789
19.0729,3171191
19.0777,3128634
19.0824,3196777
19.0872,3107005
19.0919,3148653
19.0967,3127031
19.1015,3141509
19.1062,3107182
19.111,3132192
19.1158,3157425
19.1205,3117467
19.1253,3071221
19.13,3063441
19.1348,3181017
19.1396,3098130
19.1443,3066346
19.1491,3043006
19.1538,3089570
19.1586,3091623
19.1634,3113894
19.1681,3099824
19.1729,3069730
19.1777,3035550
19.1824,3082824
19.1872,3201816
19.1919,3052812
19.1967,3173427
19.2015,3363013
19.2062,3660165
19.211,4393215
19.2158,5564493
19.2205,7434341
19.2253,9926970
19.23,12056444
19.2348,13236851
19.2396,12594519
19.2443,10324670
19.2491,8326791
19.2539,6425305
19.2586,5264481
19.2634,4414176
19.2681,3946367
19.2729,3741503
19.2777,3637429
19.2824,3481917
19.2872,3441524
19.2919,3409011
19.2967,3431079
19.3015,3559311
19.3062,3608704
19.311,3772411
19.3158,3786005
19.3205,3658687
19.3253,3569069
19.33,3532343
19.3348,3413590
19.3396,3313094
19.3443,3315458
19.3491,3245986
19.3539,3148618
19.3586,3166419
19.3634,3173650
19.3681,3152002
19.3729,3157334
19.3777,3095009
19.3824,3164101
19.3872,3074447
19.3919,3063074
19.3967,3123994
19.4015,3100723
19.4062,3160514
19.411,3120895
19.4157,3100352
19.4205,3091180
19.4253,3085417
19.43,3028419
19.4348,3158658
19.4396,3149319
19.4443,3164868
19.4491,3301892
19.4538,3579039
19.4586,4266134
19.4634,5366428
19.4681,7294143
19.4729,9287278
19.4777,10833750
19.4824,11556394
19.4872,11168031
19.4919,9561220
19.4967,7915913
19.5015,6278223
19.5062,5149647
19.511,4584770
19.5158,3954385
19.5205,3715149
19.5253,3573902
19.53,3439596
19.5348,3341956
19.5396,3386521
19.5443,3279818
19.5491,3347099
19.5539,3231931
19.5586,3270837
19.5634,3225072
19.5681,3198398
19.5729,3196590
19.5777,3115022
19.5824,3092251
19.5872,3117304
19.592,3147542
19.5967,3175041
19.6015,3179618
19.6062,3102568
19.611,3091001
19.6158,3095039
19.6205,3145913
19.6253,3085605
19.63,3189816
19.6348,3084940
19.6396,3060250
19.6443,3078666
19.6491,3088876
19.6539,3097872
19.6586,3047448
19.6634,3126066
19.6681,3087089
19.6729,3066791
19.6777,3055355
19.6824,3067326
19.6872,3123867
19.692,3132116
19.6967,3033895
19.7015,3086012
19.7062,2992819
19.711,3044246
19.7158,3109928
19.7205,3097078
19.7253,2982830
19.73,3064580
19.7348,3111291
19.7396,3110780
19.7443,3094837
19.7491,3090459
19.7539,3061252
19.7586,3160551
19.7634,3035637
19.7681,3109300
19.7729,3060051
19.7777,3071484
19.7824,3003680
19.7872,2966578
19.792,3021323
19.7967,3018709
19.8015,3049552
19.8062,3113477
19.811,3048598
19.8158,3096211
19.8205,3045486
19.8253,3053985
19.83,3210867
19.8348,3045334
19.8396,3017154
19.8443,3055315
19.8491,3067370
19.8539,3108387
19.8586,3079967
19.8634,3046620
19.8681,3056863
19.8729,3048450
19.8777,3062879
19.8824,3029478
19.8872,3024618
19.892,3013479
19.8967,3047478
19.9015,2966224
19.9062,2956793
19.911,3040710
19.9158,3073147
19.9205,3078519
19.9253,3071327
19.9301,3099153
19.9348,3026035
19.9396,3069799
19.9443,3025775
19.9491,3036132
19.9538,3047739
19.9586,3016451
19.9634,3079951
19.9681,2976254
19.9729,3050503
19.9777,3048759
19.9824,3160831
19.9872,3234185
19.9919,3213905
19.9967,3342768
20.0015,3543967
20.0062,3647045
20.011,3813641
20.0158,3725683
20.0205,3736403
20.0253,3591311
20.03,3488086
20.0348,3312542
20.0396,3162828
20.0443,3198579
20.0491,3138818
20.0539,3117334
20.0586,3100770
20.0634,3116576
20.0681,3049993
20.0729,3069277
20.0777,3025797
20.0824,2995216
20.0872,3137001
20.092,3048110
20.0967,3053101
20.1015,3098422
20.1062,3087470
20.111,3019954
20.1158,2993203
20.1205,3081699
20.1253,2968309
20.1301,2985878
20.1348,2966587
20.1396,3048050
20.1443,3098113
20.1491,3020201
20.1539,2989054
20.1586,2944727
20.1634,2981741
20.1681,2999301
20.1729,3005027
20.1777,3030922
20.1824,3073201
20.1872,3075260
20.192,3115979
20.1967,3120494
20.2015,3119190
20.2062,3137751
20.211,3069391
20.2158,3109009
20.2205,3083114
20.2253,2997705
20.2301,3053048
20.2348,3003448
20.2396,3114106
20.2443,3046242
20.2491,3002533
20.2539,3017108
20.2586,2978546
20.2634,2943668
20.2682,3060233
20.2729,3020518
20.2777,3066814
20.2824,3011047
20.2872,3007748
20.292,3065061
20.2967,2952084
20.3015,3039376
20.3062,3056760
20.311,2973098
20.3158,3015954
20.3205,2963241
20.3253,3018312
20.3301,3024331
20.3348,2980167
20.3396,3083381
20.3443,3008243
20.3491,3050130
20.3539,3031830
20.3586,3042850
20.3634,2980098
20.3682,3021385
20.3729,3038354
20.3777,3039798
20.3824,2966607
20.3872,2946796
20.392,3077253
20.3967,2986458
20.4015,3022424
20.4062,3032525
20.411,3033792
20.4158,2975742
20.4205,2999307
20.4253,2989984
20.4301,2965887
20.4348,3050171
20.4396,2918892
20.4443,3034105
20.4491,2993935
20.4539,3034952
20.4586,2911257
20.4634,2983783
20.4682,3011240
20.4729,2981052
20.4777,3034831
20.4824,2970980
20.4872,2997843
20.4919,3000249
20.4967,3090301
20.5015,2992237
20.5062,3023577
20.511,3027277
20.5158,3049880
20.5205,3010711
20.5253,2987762
20.53,3068718
20.5348,2963482
20.5396,3031109
20.5443,2998676
20.5491,3011757
20.5539,2991644
20.5586,3001421
20.5634,2999311
20.5681,2922336
20.5729,3030604
20.5777,2992172
20.5824,2963096
20.5872,3008913
20.592,2959897
20.5967,2958109
20.6015,3014941
20.6062,2966807
20.611,2949506
20.6158,2992058
20.6205,3026628
20.6253,2967162
20.6301,2956485
20.6348,2999360
20.6396,3035538
20.6443,2982805
20.6491,2970364
20.6539,3009892
20.6586,3035094
20.6634,2943420
20.6682,2981136
20.6729,2999421
20.6777,2993533
20.6824,3008209
20.6872,2975302
20.692,3078005
20.6967,3114083
20.7015,3047945
20.7063,3161506
20.711,3154736
20.7158,3148863
20.7205,3115037
20.7253,3106274
20.7301,3107187
20.7348,2986878
20.7396,3023015
20.7443,3018063
20.7491,3027538
20.7539,2966676
20.7586,2981639
20.7634,3021989
20.7682,2987198
20.7729,2952222
20.7777,3056200
20.7824,3003441
20.7872,2952227
20.792,3006572
20.7967,2978161
20.8015,2947763
20.8063,3004957
20.811,3006070
20.8158,3087974
20.8205,3015552
20.8253,2994892
20.8301,2999517
20.8348,3001483
20.8396,3020723
20.8443,3010686
20.8491,2992523
20.8539,2969800
20.8586,3030189
20.8634,2922124
20.8682,3012495
20.8729,2949930
20.8777,2994967
20.8824,2985318
20.8872,2898004
20.892,2936372
20.8967,2915843
20.9015,2916273
20.9063,2900349
20.911,2961752
20.9158,2914561
20.9205,2991075
20.9253,3020780
20.9301,2863290
20.9348,3055024
20.9396,2962347
20.9444,2999119
20.9491,3044239
20.9539,2919469
20.9586,2981862
20.9634,2991144
20.9682,2955166
20.9729,2932994
20.9777,2978643
20.9824,2973190
20.9872,2906735
20.992,2999814
20.9967,2967415
21.0015,2982269
21.0063,2955034
21.011,2970067
21.0158,2965249
21.0205,3012141
21.0253,2997977
21.03,3032724
21.0348,3046260
21.0396,3036906
21.0444,3053285
21.0491,3161492
21.0539,3103989
21.0586,3116331
21.0634,3086164
21.0681,3036694
21.0729,3037254
21.0777,3045059
21.0824,3089760
21.0872,2979217
21.092,2902660
21.0967,2936608
21.1015,2971070
21.1062,2927831
21.111,2986432
21.1158,2980859
21.1205,2952617
21.1253,2942338
21.1301,3093195
21.1348,2919986
21.1396,2977629
21.1443,2968353
21.1491,2988069
21.1539,2979301
21.1586,3016999
21.1634,2930926
21.1682,2977251
21.1729,2986856
21.1777,2952080
21.1824,2989791
21.1872,2965901
21.192,2929042
21.1967,2872152
21.2015,2933165
21.2063,2905412
21.211,2938816
21.2158,2968324
21.2205,2973311
21.2253,2940018
21.2301,2930293
21.2348,2955337
21.2396,2982991
21.2444,2957083
21.2491,2920353
21.2539,2978884
21.2586,2975487
21.2634,2999469
21.2682,2953264
21.2729,3016200
21.2777,2914352
21.2825,3037628
21.2872,2906910
21.292,2892529
21.2967,2962151
21.3015,3047322
21.3063,2953557
21.311,2915027
21.3158,2914621
21.3205,3013983
21.3253,2935897
21.3301,2936592
21.3348,2926523
21.3396,2911514
21.3444,2918939
21.3491,2925222
21.3539,2940882
21.3586,2913452
21.3634,2891831
21.3682,2899715
21.3729,2913190
21.3777,2965107
21.3825,2959098
21.3872,2919265
21.392,2981855
21.3967,3010115
21.4015,2979128
21.4063,2901496
21.411,2958340
21.4158,2924151
21.4205,2984845
21.4253,2954979
21.4301,2894564
21.4348,2949248
21.4396,2930006
21.4444,2985452
21.4491,2957945
21.4539,2974020
21.4586,2910000
21.4634,2947723
21.4682,2899404
21.4729,2963848
21.4777,2949889
21.4825,2974409
21.4872,2930105
21.492,2930843
