D:\DATA\HAMBERGER\NICK\20230701\20230701_5-26-23_NBenthi_23.D  2 Jul 23   2:43 am
Start of data points
4.09148,2487630
4.09625,2443452
4.10102,2534826
4.10578,2446837
4.11053,2471005
4.1153,2429967
4.12007,2487137
4.12482,2554645
4.12958,2615339
4.13435,2654315
4.13912,2522999
4.14387,2450053
4.14863,2539468
4.1534,2430109
4.15815,2228884
4.16292,2151791
4.16768,2156116
4.17245,2066026
4.1772,2069437
4.18197,2131777
4.18673,2177105
4.19148,2172417
4.19625,2299645
4.20102,2198393
4.20578,2136451
4.21053,2037699
4.2153,1996024
4.22007,1921555
4.22482,1898814
4.22958,1845055
4.23435,1884320
4.23912,1934147
4.24387,1988670
4.24863,1923921
4.2534,1925680
4.25815,1897413
4.26292,1802182
4.26768,1812163
4.27245,1871529
4.2772,1804130
4.28197,1860679
4.28673,2111217
4.2915,2079932
4.29625,1873356
4.30102,1762767
4.30578,1676467
4.31053,1687977
4.3153,1696759
4.32007,1691014
4.32483,1704981
4.32958,1792966
4.33435,1872855
4.33912,1895639
4.34387,1768585
4.34863,1666448
4.3534,1727443
4.35817,1741525
4.36292,1968128
4.36768,2275516
4.37245,2307226
4.3772,2054589
4.38197,1920861
4.38673,1856972
4.3915,1863596
4.39625,1778629
4.40102,1730591
4.40578,1704197
4.41053,1684350
4.4153,1677353
4.42007,1678831
4.42483,1684666
4.42958,1782129
4.43435,1888191
4.43912,1712305
4.44387,1774250
4.44863,1747503
4.4534,1735092
4.45817,1697711
4.46292,1594675
4.46768,1521056
4.47245,1525482
4.47722,1547094
4.48197,1570156
4.48673,1560639
4.4915,1489060
4.49625,1556391
4.50102,1573829
4.50578,1602612
4.51055,1567355
4.5153,1600913
4.52007,1673197
4.52483,1786946
4.52958,1609825
4.53435,1548111
4.53912,1506561
4.54388,1543962
4.54863,1614339
4.5534,1637494
4.55817,1518369
4.56292,1528005
4.56768,1549357
4.57245,1630684
4.57722,1785965
4.58197,1979732
4.58673,2091331
4.5915,1968450
4.59625,1786663
4.60102,1578239
4.60578,1497064
4.61055,1449734
4.6153,1434485
4.62007,1448901
4.62483,1440859
4.6296,1447056
4.63435,1412336
4.63912,1439065
4.64388,1410074
4.64863,1409002
4.6534,1392429
4.65817,1506474
4.66293,1428356
4.66768,1412997
4.67245,1425108
4.67722,1468796
4.68197,1444055
4.68673,1394513
4.6915,1352652
4.69627,1385942
4.70102,1362473
4.70578,1369419
4.71055,1395215
4.7153,1387654
4.72007,1550768
4.72483,1367253
4.7296,1354764
4.73435,1378925
4.73912,1318622
4.74388,1338546
4.74863,1338035
4.7534,1356795
4.75817,1360013
4.76293,1326697
4.76768,1341214
4.77245,1310504
4.77722,1360886
4.78197,1364661
4.78673,1313665
4.7915,1339570
4.79627,1362837
4.80102,1341592
4.80578,1303105
4.81055,1311140
4.81532,1311769
4.82007,1352103
4.82483,1314615
4.8296,1354013
4.83435,1315459
4.83912,1333992
4.84388,1333329
4.84865,1357139
4.8534,1286799
4.85817,1291983
4.86293,1318300
4.86768,1301429
4.87245,1282734
4.87722,1314126
4.88198,1288418
4.88673,1308938
4.8915,1312170
4.89627,1285686
4.90102,1274174
4.90578,1277048
4.91055,1313803
4.91532,1317674
4.92007,1318766
4.92483,1312069
4.9296,1308915
4.93435,1327180
4.93912,1310211
4.94388,1343741
4.94865,1326882
4.9534,1350131
4.95817,1346711
4.96293,1312299
4.9677,1266005
4.97245,1326791
4.97722,1250151
4.98198,1297702
4.98673,1362342
4.9915,1330863
4.99627,1303939
5.00103,1278050
5.00578,1275261
5.01055,1274497
5.01532,1272026
5.02007,1282380
5.02483,1344292
5.0296,1253403
5.03437,1372098
5.03912,1253440
5.04388,1246722
5.04865,1313033
5.0534,1297344
5.05817,1280192
5.06293,1310835
5.0677,1249842
5.07245,1232882
5.07722,1264808
5.08198,1266450
5.08673,1247956
5.0915,1256236
5.09627,1271529
5.10103,1271214
5.10578,1253670
5.11055,1257766
5.11532,1276291
5.12007,1272821
5.12483,1264989
5.1296,1296119
5.13437,1325790
5.13912,1320688
5.14388,1391607
5.14865,1385476
5.15342,1366264
5.15817,1423730
5.16293,1455510
5.1677,1442152
5.17245,1415426
5.17722,1478269
5.18198,1395622
5.18675,1401556
5.1915,1408464
5.19627,1492913
5.20103,1417705
5.20578,1394833
5.21055,1442996
5.21532,1410526
5.22008,1425489
5.22483,1406730
5.2296,1369894
5.23437,1424526
5.23912,1480019
5.24388,1465626
5.24865,1382969
5.25342,1438596
5.25817,1364042
5.26293,1402857
5.2677,1501113
5.27245,1684182
5.27722,1782077
5.28198,1797155
5.28675,1715957
5.2915,1558864
5.29627,1483707
5.30103,1470087
5.30578,1447245
5.31055,1427239
5.31532,1419331
5.32008,1394983
5.32483,1355954
5.3296,1366764
5.33437,1405026
5.33913,1382936
5.34388,1397660
5.34865,1393304
5.35342,1433380
5.35817,1361539
5.36293,1379609
5.3677,1399073
5.37247,1364467
5.37722,1316155
5.38198,1380855
5.38675,1370412
5.3915,1358177
5.39627,1393880
5.40103,1346382
5.4058,1403622
5.41055,1339150
5.41532,1322830
5.42008,1351015
5.42483,1359551
5.4296,1382307
5.43437,1452963
5.43913,1372695
5.44388,1339385
5.44865,1386115
5.45342,1382126
5.45817,1334550
5.46293,1383231
5.4677,1355524
5.47247,1305089
5.47722,1329585
5.48198,1347205
5.48675,1365465
5.49152,1376081
5.49627,1318932
5.50103,1369629
5.5058,1345952
5.51055,1361213
5.51532,1315170
5.52008,1257131
5.52485,1334383
5.5296,1330339
5.53437,1329449
5.53913,1289451
5.54388,1358926
5.54865,1338500
5.55342,1306416
5.55818,1314540
5.56293,1259073
5.5677,1291000
5.57247,1324762
5.57722,1317799
5.58198,1256721
5.58675,1302259
5.59152,1278775
5.59627,1325466
5.60103,1315597
5.6058,1247255
5.61055,1287026
5.61532,1273882
5.62008,1233226
5.62485,1288570
5.6296,1246684
5.63437,1239657
5.63913,1201275
5.64388,1241929
5.64865,1239289
5.65342,1255105
5.65818,1269591
5.66293,1207319
5.6677,1241639
5.67247,1211608
5.67723,1238286
5.68198,1287368
5.68675,1237806
5.69152,1233820
5.69627,1248900
5.70103,1250887
5.7058,1213547
5.71057,1191543
5.71532,1253498
5.72008,1246339
5.72485,1241964
5.7296,1245167
5.73437,1264509
5.73913,1214527
5.7439,1224772
5.74865,1258584
5.75342,1261851
5.75818,1224354
5.76293,1252285
5.7677,1238342
5.77247,1218212
5.77723,1216520
5.78198,1225274
5.78675,1198493
5.79152,1237317
5.79627,1244071
5.80103,1256627
5.8058,1252143
5.81057,1334786
5.81532,1712371
5.82008,2129197
5.82485,2244483
5.82962,2150473
5.83437,2266382
5.83913,2201705
5.8439,2227875
5.84865,2159522
5.85342,2210694
5.85818,2176036
5.86295,2118335
5.8677,2032820
5.87247,2081844
5.87723,2081850
5.88198,2039386
5.88675,1928594
5.89152,1961542
5.89628,1902603
5.90103,1886930
5.9058,1893872
5.91057,1857271
5.91532,1791159
5.92008,1751949
5.92485,1767814
5.92962,1701013
5.93437,1718937
5.93913,1686358
5.9439,1688905
5.94865,1674719
5.95342,1618119
5.95818,1586912
5.96295,1688547
5.9677,1811535
5.97247,1894661
5.97723,1793303
5.98198,1684900
5.98675,1634724
5.99152,1553665
5.99628,1526224
6.00103,1513490
6.0058,1477375
6.01057,1427527
6.01533,1485496
6.02008,1610673
6.02485,1433191
6.02962,1433018
6.03437,1450857
6.03913,1448484
6.0439,1363259
6.04867,1323109
6.05342,1393503
6.05818,1401857
6.06295,1387772
6.0677,1358424
6.07247,1339088
6.07723,1375356
6.082,1381974
6.08675,1439340
6.09152,1466038
6.09628,1499097
6.10103,1484772
6.1058,1445543
6.11057,1438940
6.11533,1358318
6.12008,1351870
6.12485,1312007
6.12962,1333980
6.13437,1325265
6.13913,1296305
6.1439,1296698
6.14867,1248739
6.15342,1243120
6.15818,1287287
6.16295,1250575
6.16772,1266323
6.17247,1283752
6.17723,1301172
6.182,1318085
6.18675,1340389
6.19152,1335614
6.19628,1320968
6.20105,1272205
6.2058,1296462
6.21057,1241968
6.21533,1276141
6.22008,1304665
6.22485,1308504
6.22962,1267102
6.23438,1251168
6.23913,1226301
6.2439,1236787
6.24867,1210343
6.25342,1223288
6.25818,1245386
6.26295,1231195
6.26772,1220547
6.27247,1223937
6.27723,1226240
6.282,1158285
6.28675,1192353
6.29152,1154080
6.29628,1212913
6.30105,1129960
6.3058,1156878
6.31057,1131441
6.31533,1122692
6.32008,1177039
6.32485,1205782
6.32962,1226455
6.33438,1179014
6.33913,1193290
6.3439,1151086
6.34867,1158832
6.35343,1166773
6.35818,1187647
6.36295,1157959
6.36772,1115809
6.37247,1144950
6.37723,1113613
6.382,1135823
6.38677,1121398
6.39152,1106230
6.39628,1096281
6.40105,1077922
6.4058,1103793
6.41057,1137691
6.41533,1165331
6.4201,1149118
6.42485,1219124
6.42962,1227859
6.43438,1201832
6.43913,1229370
6.4439,1178922
6.44867,1157064
6.45343,1101011
6.45818,1142118
6.46295,1086823
6.46772,1062081
6.47247,1100199
6.47723,1081678
6.482,1127541
6.48677,1070232
6.49152,1107758
6.49628,1081626
6.50105,1097063
6.5058,1038843
6.51057,1052296
6.51533,1068602
6.5201,1067079
6.52485,1005150
6.52962,1043978
6.53438,1073027
6.53915,1066382
6.5439,1071262
6.54867,1088560
6.55343,1091008
6.55818,1048519
6.56295,1040099
6.56772,1032988
6.57248,1045352
6.57723,1009496
6.582,993736
6.58677,1059489
6.59152,1031064
6.59628,985576
6.60105,1003690
6.60582,1018468
6.61057,1016387
6.61533,1072988
6.6201,1041222
6.62485,1067471
6.62962,998481
6.63438,1011891
6.63915,999268
6.6439,998632
6.64867,1010176
6.65343,964811
6.65818,1039829
6.66295,1049975
6.66772,999715
6.67248,1004091
6.67723,980457
6.682,1013471
6.68677,984858
6.69153,978660
6.69628,965696
6.70105,989282
6.70582,997790
6.71057,996998
6.71533,934765
6.7201,995319
6.72487,1012362
6.72962,986104
6.73438,984027
6.73915,948162
6.7439,984990
6.74867,993835
6.75343,974618
6.7582,1015981
6.76295,1002751
6.76772,962180
6.77248,983017
6.77723,950567
6.782,932342
6.78677,970110
6.79153,957466
6.79628,980897
6.80105,976057
6.80582,1005649
6.81057,952046
6.81533,976950
6.8201,976932
6.82487,937068
6.82962,957319
6.83438,1035928
6.83915,1133628
6.8439,1249851
6.84867,1215105
6.85343,1248523
6.8582,1143271
6.86295,1035810
6.86772,1032429
6.87248,956174
6.87725,998923
6.882,1008410
6.88677,959537
6.89153,944234
6.89628,967610
6.90105,905422
6.90582,931568
6.91058,972775
6.91533,939322
6.9201,967761
6.92487,950847
6.92962,934744
6.93438,915133
6.93915,905133
6.94392,915305
6.94867,926814
6.95343,930837
6.9582,908312
6.96295,929943
6.96772,937248
6.97248,952493
6.97725,933829
6.982,949080
6.98677,958320
6.99153,963155
6.99628,877482
7.00105,906939
7.00582,954638
7.01058,903081
7.01533,894387
7.0201,913144
7.02487,912629
7.02963,914689
7.03438,925664
7.03915,924961
7.04392,908805
7.04867,897531
7.05343,915962
7.0582,912623
7.06297,868977
7.06772,910111
7.07248,891250
7.07725,851857
7.082,887564
7.08677,855573
7.09153,874815
7.0963,868802
7.10105,902692
7.10582,902488
7.11058,915114
7.11533,887303
7.1201,887509
7.12487,846461
7.12963,861023
7.13438,861966
7.13915,847708
7.14392,857171
7.14867,865474
7.15343,835451
7.1582,873749
7.16297,867702
7.16772,854559
7.17248,833332
7.17725,860761
7.182,843510
7.18677,850317
7.19153,839565
7.1963,842320
7.20105,827512
7.20582,869030
7.21058,829269
7.21535,825327
7.2201,864510
7.22487,846042
7.22963,852453
7.23438,816771
7.23915,831885
7.24392,838372
7.24868,846760
7.25343,812447
7.2582,804267
7.26297,848126
7.26772,815175
7.27248,825145
7.27725,803559
7.28202,824146
7.28677,838324
7.29153,815102
7.2963,831148
7.30105,823468
7.30582,783250
7.31058,825404
7.31535,845827
7.3201,788864
7.32487,792637
7.32963,819113
7.33438,799287
7.33915,826206
7.34392,824623
7.34868,811129
7.35343,776321
7.3582,770635
7.36297,802038
7.36772,791281
7.37248,793415
7.37725,757735
7.38202,788919
7.38677,802087
7.39153,795194
7.3963,824091
7.40107,803317
7.40582,789387
7.41058,827169
7.41535,796693
7.4201,831294
7.42487,752271
7.42963,761559
7.4344,786982
7.43915,773259
7.44392,764173
7.44868,787096
7.45343,765161
7.4582,747861
7.46297,798774
7.46773,770957
7.47248,773815
7.47725,791675
7.48202,778435
7.48677,789777
7.49153,737604
7.4963,750473
7.50107,757398
7.50582,754485
7.51058,758856
7.51535,793001
7.5201,765862
7.52487,787759
7.52963,781580
7.5344,828131
7.53915,861820
7.54392,889771
7.54868,920377
7.55345,973989
7.5582,855071
7.56297,828043
7.56773,799746
7.57248,785810
7.57725,764214
7.58202,736221
7.58678,795543
7.59153,770058
7.5963,757086
7.60107,719199
7.60582,755245
7.61058,756790
7.61535,769139
7.62012,730004
7.62487,765037
7.62963,782395
7.6344,760083
7.63915,763715
7.64392,756539
7.64868,735136
7.65345,754413
7.6582,734275
7.66297,754313
7.66773,751943
7.67248,749729
7.67725,766519
7.68202,741806
7.68678,724486
7.69153,744833
7.6963,710737
7.70107,710912
7.70582,694612
7.71058,696965
7.71535,688362
7.72012,730946
7.72487,709917
7.72963,751622
7.7344,721337
7.73917,740755
7.74392,749810
7.74868,730206
7.75345,710749
7.7582,685172
7.76297,687769
7.76773,690729
7.7725,748023
7.77725,738846
7.78202,706471
7.78678,718320
7.79153,708757
7.7963,731852
7.80107,688135
7.80583,703310
7.81058,732673
7.81535,716459
7.82012,681007
7.82487,691742
7.82963,712600
7.8344,742599
7.83917,724441
7.84392,712632
7.84868,703559
7.85345,710548
7.8582,720614
7.86297,705185
7.86773,698896
7.8725,700774
7.87725,702476
7.88202,707146
7.88678,721595
7.89155,684415
7.8963,682069
7.90107,712313
7.90583,696468
7.91058,713900
7.91535,694620
7.92012,709956
7.92488,708399
7.92963,742214
7.9344,820510
7.93917,826799
7.94392,855599
7.94868,832548
7.95345,767840
7.95822,768219
7.96297,741667
7.96773,695512
7.9725,692663
7.97725,682937
7.98202,692420
7.98678,718937
7.99155,677129
7.9963,701995
8.00107,651862
8.00583,699889
8.01058,692487
8.01535,666503
8.02012,696264
8.02488,669612
8.02963,707162
8.0344,684040
8.03917,708645
8.04392,664374
8.04868,686936
8.05345,705891
8.05822,682653
8.06297,669357
8.06773,750193
8.0725,760167
8.07727,832924
8.08202,858643
8.08678,846836
8.09155,833492
8.0963,782690
8.10107,710960
8.10583,681756
8.1106,669047
8.11535,652618
8.12012,702327
8.12488,644422
8.12963,700396
8.1344,702518
8.13917,708904
8.14393,680239
8.14868,664144
8.15345,694791
8.15822,661595
8.16297,662464
8.16773,665412
8.1725,642634
8.17727,643056
8.18202,614886
8.18678,622287
8.19155,650460
8.1963,724585
8.20107,610005
8.20583,645665
8.2106,664308
8.21535,659631
8.22012,638648
8.22488,619571
8.22963,654773
8.2344,644397
8.23917,664243
8.24393,646234
8.24868,617342
8.25345,637541
8.25822,635299
8.26298,627826
8.26773,650686
8.2725,613175
8.27727,676113
8.28202,654375
8.28678,638910
8.29155,654810
8.29632,625058
8.30107,637348
8.30583,604040
8.3106,628783
8.31535,625113
8.32012,618765
8.32488,667347
8.32965,622624
8.3344,638732
8.33917,645155
8.34393,619812
8.34868,643378
8.35345,637926
8.35822,638806
8.36298,649883
8.36773,652577
8.3725,649560
8.37727,635564
8.38202,600159
8.38678,606910
8.39155,614694
8.39632,583846
8.40107,616095
8.40583,615079
8.4106,577942
8.41537,588675
8.42012,609590
8.42488,619838
8.42965,624796
8.4344,583697
8.43917,607608
8.44393,580477
8.4487,575337
8.45345,627719
8.45822,604124
8.46298,600003
8.46773,615465
8.4725,595220
8.47727,592672
8.48203,581532
8.48678,591283
8.49155,599229
8.49632,604347
8.50107,609438
8.50583,587785
8.5106,609011
8.51537,599685
8.52012,573762
8.52488,597727
8.52965,580503
8.5344,591593
8.53917,598633
8.54393,601395
8.5487,610353
8.55345,585541
8.55822,580521
8.56298,571762
8.56773,569398
8.5725,581478
8.57727,557197
8.58203,595448
8.58678,597659
8.59155,571208
8.59632,618234
8.60108,594186
8.60583,584076
8.6106,583424
8.61537,601242
8.62012,566207
8.62488,533106
8.62965,615742
8.63442,557586
8.63917,582425
8.64393,585170
8.6487,593624
8.65345,571447
8.65822,589011
8.66298,596681
8.66775,591107
8.6725,580054
8.67727,571855
8.68203,574670
8.68678,548256
8.69155,576492
8.69632,553693
8.70108,586177
8.70583,543992
8.7106,579486
8.71537,605471
8.72012,570116
8.72488,566972
8.72965,586914
8.73442,558648
8.73917,583684
8.74393,551154
8.7487,562651
8.75347,572208
8.75822,555799
8.76298,552952
8.76775,540623
8.7725,553919
8.77727,552095
8.78203,509746
8.7868,559799
8.79155,568431
8.79632,576912
8.80108,600316
8.80583,573709
8.8106,535771
8.81537,543211
8.82013,531055
8.82488,544992
8.82965,563170
8.83442,549401
8.83917,576296
8.84393,561815
8.8487,569261
8.85347,556045
8.85822,547578
8.86298,573960
8.86775,554492
8.8725,566510
8.87727,524912
8.88203,566252
8.8868,537260
8.89155,547063
8.89632,547275
8.90108,558725
8.90583,538796
8.9106,562615
8.91537,515632
8.92013,583457
8.92488,537344
8.92965,527493
8.93442,517672
8.93918,529089
8.94393,554274
8.9487,498690
8.95347,536020
8.95822,535587
8.96298,549222
8.96775,530025
8.97252,537465
8.97727,575032
8.98203,582154
8.9868,554168
8.99155,545035
8.99632,541279
9.00108,546216
9.00585,580148
9.0106,607097
9.01537,595948
9.02013,605323
9.02488,604057
9.02965,596129
9.03442,600362
9.03918,584763
9.04393,578866
9.0487,578109
9.05347,573341
9.05822,556758
9.06298,557735
9.06775,554969
9.07252,561713
9.07727,502773
9.08203,545039
9.0868,541845
9.09155,515156
9.09632,513075
9.10108,543665
9.10585,499675
9.1106,539041
9.11537,516377
9.12013,507433
9.1249,532586
9.12965,556632
9.13442,585133
9.13918,574910
9.14393,611734
9.1487,620897
9.15347,621140
9.15823,579699
9.16298,583652
9.16775,600472
9.17252,585501
9.17727,593641
9.18203,601063
9.1868,555134
9.19157,555698
9.19632,566856
9.20108,519705
9.20585,521951
9.2106,522360
9.21537,530869
9.22013,524766
9.2249,542264
9.22965,528797
9.23442,524457
9.23918,523242
9.24393,539452
9.2487,516451
9.25347,504037
9.25823,518628
9.26298,519171
9.26775,529764
9.27252,516606
9.27728,517584
9.28203,510617
9.2868,500988
9.29157,518831
9.29632,513061
9.30108,535970
9.30585,504375
9.31062,523697
9.31537,523737
9.32013,537295
9.3249,508880
9.32965,511169
9.33442,532205
9.33918,524468
9.34395,498565
9.3487,515688
9.35347,509213
9.35823,534104
9.36298,512268
9.36775,516410
9.37252,553216
9.37728,532689
9.38203,549544
9.3868,535283
9.39157,570170
9.39632,551329
9.40108,534312
9.40585,524719
9.41062,510952
9.41537,528652
9.42013,526417
9.4249,523807
9.42965,528956
9.43442,508158
9.43918,504054
9.44395,477357
9.4487,486072
9.45347,510181
9.45823,509219
9.463,489776
9.46775,449169
9.47252,486145
9.47728,494660
9.48203,500705
9.4868,505554
9.49157,497357
9.49633,492171
9.50108,487704
9.50585,466045
9.51062,464601
9.51537,479698
9.52013,497948
9.5249,521397
9.52967,527325
9.53442,488208
9.53918,500489
9.54395,491277
9.5487,482538
9.55347,475516
9.55823,484342
9.563,474007
9.56775,506170
9.57252,495340
9.57728,474354
9.58203,508941
9.5868,456992
9.59157,498130
9.59633,470990
9.60108,485396
9.60585,486865
9.61062,489622
9.61538,530884
9.62013,497068
9.6249,517624
9.62967,494857
9.63442,495810
9.63918,516415
9.64395,550562
9.64872,549393
9.65347,547571
9.65823,550265
9.663,539619
9.66775,525704
9.67252,501861
9.67728,520861
9.68205,520083
9.6868,519879
9.69157,510059
9.69633,516614
9.70108,489370
9.70585,516192
9.71062,501089
9.71538,482949
9.72013,512558
9.7249,508034
9.72967,503460
9.73442,500924
9.73918,501335
9.74395,468019
9.74872,483395
9.75347,498059
9.75823,477673
9.763,500608
9.76775,454840
9.77252,476828
9.77728,486074
9.78205,482640
9.7868,464517
9.79157,515554
9.79633,496356
9.8011,491979
9.80585,488861
9.81062,460706
9.81538,501722
9.82013,459694
9.8249,478453
9.82967,516061
9.83443,506826
9.83918,474987
9.84395,466767
9.84872,518669
9.85347,502636
9.85823,492304
9.863,481238
9.86777,468688
9.87252,469842
9.87728,467501
9.88205,464740
9.8868,485432
9.89157,483945
9.89633,467709
9.9011,473182
9.90585,469839
9.91062,506372
9.91538,509756
9.92013,461776
9.9249,481848
9.92967,495065
9.93443,495392
9.93918,485826
9.94395,489572
9.94872,503591
9.95348,539737
9.95823,544444
9.963,573065
9.96777,608068
9.97252,633147
9.97728,616213
9.98205,638983
9.98682,636130
9.99157,650604
9.99633,666657
10.0011,647612
10.0059,650598
10.0106,660266
10.0154,575797
10.0202,565884
10.0249,523006
10.0297,524907
10.0344,506327
10.0392,497340
10.044,530202
10.0487,515631
10.0535,485656
10.0582,505401
10.063,514445
10.0678,499243
10.0725,527312
10.0773,496708
10.0821,491764
10.0868,497345
10.0916,491115
10.0963,513188
10.1011,538801
10.1059,482763
10.1106,506410
10.1154,533953
10.1202,506846
10.1249,498581
10.1297,498150
10.1344,513282
10.1392,510896
10.144,536115
10.1487,542261
10.1535,572560
10.1582,550905
10.163,546450
10.1678,532339
10.1725,565809
10.1773,507069
10.1821,488119
10.1868,489046
10.1916,511921
10.1963,497302
10.2011,508840
10.2059,501637
10.2106,535391
10.2154,531476
10.2202,523407
10.2249,525267
10.2297,524033
10.2344,565313
10.2392,515349
10.244,510518
10.2487,489926
10.2535,492231
10.2582,502328
10.263,500249
10.2678,489670
10.2725,522634
10.2773,495510
10.2821,489345
10.2868,473213
10.2916,465335
10.2963,504067
10.3011,502203
10.3059,519158
10.3106,502264
10.3154,499264
10.3202,503826
10.3249,463016
10.3297,508694
10.3344,474287
10.3392,492378
10.344,504081
10.3487,473163
10.3535,481375
10.3583,469038
10.363,481272
10.3678,464634
10.3725,491841
10.3773,488893
10.3821,494075
10.3868,512222
10.3916,457858
10.3963,487772
10.4011,472802
10.4059,456629
10.4106,456842
10.4154,454406
10.4202,469458
10.4249,463798
10.4297,504858
10.4344,518111
10.4392,504381
10.444,476850
10.4487,474069
10.4535,486871
10.4583,490132
10.463,480821
10.4678,510905
10.4725,485121
10.4773,458232
10.4821,483044
10.4868,497524
10.4916,503890
10.4963,532186
10.5011,584794
10.5059,634153
10.5106,645837
10.5154,653404
10.5202,617627
10.5249,564880
10.5297,574454
10.5344,538889
10.5392,515074
10.544,507222
10.5487,487575
10.5535,467415
10.5583,487434
10.563,496998
10.5678,493959
10.5725,510206
10.5773,492966
10.5821,502265
10.5868,493178
10.5916,535879
10.5963,604723
10.6011,619042
10.6059,776968
10.6106,876722
10.6154,1016705
10.6202,1099295
10.6249,1099781
10.6297,1020393
10.6344,883507
10.6392,712687
10.644,609397
10.6487,555815
10.6535,545383
10.6583,521683
10.663,482723
10.6678,493861
10.6725,460204
10.6773,472360
10.6821,497899
10.6868,479922
10.6916,485744
10.6964,485367
10.7011,491827
10.7059,537090
10.7106,521626
10.7154,524125
10.7202,528821
10.7249,518497
10.7297,533007
10.7344,518098
10.7392,528336
10.744,528309
10.7487,489227
10.7535,617114
10.7583,475345
10.763,522714
10.7678,545793
10.7725,564241
10.7773,600285
10.7821,595978
10.7868,611294
10.7916,597446
10.7964,551970
10.8011,574453
10.8059,518486
10.8106,510317
10.8154,529818
10.8202,497397
10.8249,523538
10.8297,546863
10.8344,534205
10.8392,536310
10.844,517768
10.8487,539290
10.8535,532237
10.8583,508998
10.863,511679
10.8678,541327
10.8725,526461
10.8773,504946
10.8821,545271
10.8868,502534
10.8916,525660
10.8964,513137
10.9011,492842
10.9059,520882
10.9106,536712
10.9154,528991
10.9202,509685
10.9249,521441
10.9297,519694
10.9344,536550
10.9392,511182
10.944,512175
10.9487,516166
10.9535,555442
10.9583,541775
10.963,573051
10.9678,601159
10.9725,586473
10.9773,577075
10.9821,588520
10.9868,552206
10.9916,518850
10.9964,523007
11.0011,539508
11.0059,557294
11.0106,540324
11.0154,562857
11.0202,537623
11.0249,505335
11.0297,538605
11.0345,519819
11.0392,536271
11.044,535163
11.0487,510507
11.0535,526459
11.0583,493577
11.063,523481
11.0678,545638
11.0725,548670
11.0773,571619
11.0821,546505
11.0868,549133
11.0916,525632
11.0964,555425
11.1011,564246
11.1059,574092
11.1106,573184
11.1154,545532
11.1202,578014
11.1249,561974
11.1297,528198
11.1345,524888
11.1392,540287
11.144,523270
11.1487,530605
11.1535,525062
11.1583,523203
11.163,535793
11.1678,531861
11.1725,544455
11.1773,528343
11.1821,492012
11.1868,523815
11.1916,520211
11.1964,509989
11.2011,499966
11.2059,520132
11.2106,510802
11.2154,486677
11.2202,520928
11.2249,494332
11.2297,480583
11.2345,522934
11.2392,575685
11.244,594992
11.2487,611479
11.2535,629811
11.2583,624931
11.263,541127
11.2678,538483
11.2725,561326
11.2773,545100
11.2821,534085
11.2868,510072
11.2916,526321
11.2964,536544
11.3011,513047
11.3059,501552
11.3106,512793
11.3154,518824
11.3202,525707
11.3249,543955
11.3297,507125
11.3345,529349
11.3392,519620
11.344,514959
11.3487,521647
11.3535,512125
11.3583,521850
11.363,494507
11.3678,505260
11.3726,529050
11.3773,474682
11.3821,506337
11.3868,509996
11.3916,511902
11.3964,515617
11.4011,499483
11.4059,495282
11.4106,540568
11.4154,530658
11.4202,500771
11.4249,506469
11.4297,492929
11.4345,544890
11.4392,515968
11.444,535606
11.4487,523923
11.4535,536653
11.4583,505286
11.463,529570
11.4678,524821
11.4726,536742
11.4773,537484
11.4821,532788
11.4868,556020
11.4916,608030
11.4964,652404
11.5011,613860
11.5059,659752
11.5106,609279
11.5154,573787
11.5202,548849
11.5249,530294
11.5297,520326
11.5345,529533
11.5392,513991
11.544,525030
11.5487,471461
11.5535,501334
11.5583,498916
11.563,530883
11.5678,519320
11.5726,517246
11.5773,531314
11.5821,506935
11.5868,508348
11.5916,520049
11.5964,566643
11.6011,575829
11.6059,576732
11.6106,567145
11.6154,585327
11.6202,567781
11.6249,569165
11.6297,544107
11.6345,543645
11.6392,556930
11.644,508993
11.6487,519589
11.6535,527192
11.6583,545541
11.663,585590
11.6678,631222
11.6726,638260
11.6773,646110
11.6821,644944
11.6868,624665
11.6916,558114
11.6964,582284
11.7011,550778
11.7059,554297
11.7107,560698
11.7154,531971
11.7202,537821
11.7249,619394
11.7297,647606
11.7345,596070
11.7392,595779
11.744,549927
11.7487,534226
11.7535,530231
11.7583,525650
11.763,527767
11.7678,552516
11.7726,567654
11.7773,586216
11.7821,627002
11.7868,665053
11.7916,662962
11.7964,645982
11.8011,641155
11.8059,621624
11.8107,636077
11.8154,630010
11.8202,606224
11.8249,576544
11.8297,578591
11.8345,573300
11.8392,544920
11.844,534301
11.8487,551001
11.8535,543143
11.8583,547960
11.863,577816
11.8678,569963
11.8726,549019
11.8773,537279
11.8821,574541
11.8868,531750
11.8916,563678
11.8964,555081
11.9011,551795
11.9059,556111
11.9107,542852
11.9154,541038
11.9202,554729
11.9249,534792
11.9297,540833
11.9345,536441
11.9392,528702
11.944,512765
11.9487,520751
11.9535,505275
11.9583,540630
11.963,529436
11.9678,575995
11.9726,569240
11.9773,533526
11.9821,549496
11.9868,532398
11.9916,550919
11.9964,529010
12.0011,558889
12.0059,517014
12.0107,568399
12.0154,546624
12.0202,541523
12.0249,501089
12.0297,535455
12.0345,545391
12.0392,553406
12.044,562034
12.0488,525831
12.0535,515932
12.0583,545235
12.063,544588
12.0678,540997
12.0726,558856
12.0773,544398
12.0821,557088
12.0868,581384
12.0916,547489
12.0964,572049
12.1011,563829
12.1059,579184
12.1107,592067
12.1154,670374
12.1202,714132
12.1249,765005
12.1297,773724
12.1345,749133
12.1392,678200
12.144,637297
12.1488,647780
12.1535,598479
12.1583,590145
12.163,612171
12.1678,581167
12.1726,559909
12.1773,535877
12.1821,585388
12.1868,579547
12.1916,588803
12.1964,584667
12.2011,609570
12.2059,609955
12.2107,585053
12.2154,565489
12.2202,587120
12.2249,569593
12.2297,574794
12.2345,570553
12.2392,608530
12.244,541644
12.2488,551839
12.2535,578554
12.2583,540386
12.263,538644
12.2678,577848
12.2726,570760
12.2773,545962
12.2821,588013
12.2868,640868
12.2916,908380
12.2964,1771527
12.3011,3770468
12.3059,8080082
12.3107,15593383
12.3154,25401464
12.3202,31396950
12.3249,28881544
12.3297,21891248
12.3345,13717938
12.3392,7239364
12.344,3645662
12.3488,2036422
12.3535,1252505
12.3583,958780
12.363,866381
12.3678,800593
12.3726,755535
12.3773,774265
12.3821,709165
12.3869,709974
12.3916,685534
12.3964,688585
12.4011,727694
12.4059,706096
12.4107,682593
12.4154,700353
12.4202,665006
12.4249,694340
12.4297,671330
12.4345,647400
12.4392,687014
12.444,707422
12.4488,744359
12.4535,811263
12.4583,810450
12.463,801580
12.4678,747305
12.4726,697804
12.4773,684517
12.4821,686251
12.4869,740627
12.4916,830782
12.4964,836573
12.5011,833866
12.5059,778649
12.5107,742322
12.5154,714619
12.5202,705638
12.5249,691318
12.5297,652642
12.5345,637314
12.5392,637835
12.544,669988
12.5488,655714
12.5535,656724
12.5583,661931
12.563,664463
12.5678,628478
12.5726,627190
12.5773,653054
12.5821,668079
12.5869,735449
12.5916,747725
12.5964,748447
12.6011,751074
12.6059,746601
12.6107,758172
12.6154,784842
12.6202,798869
12.6249,862179
12.6297,849949
12.6345,843469
12.6392,803412
12.644,778991
12.6488,691576
12.6535,689562
12.6583,684920
12.663,640481
12.6678,676287
12.6726,635070
12.6773,681356
12.6821,659366
12.6869,704448
12.6916,750098
12.6964,776727
12.7011,759705
12.7059,707093
12.7107,654305
12.7154,638558
12.7202,609920
12.725,604006
12.7297,599439
12.7345,611172
12.7392,609595
12.744,592830
12.7488,618958
12.7535,613543
12.7583,607433
12.763,574039
12.7678,591047
12.7726,606732
12.7773,640137
12.7821,632372
12.7869,661573
12.7916,674266
12.7964,656970
12.8011,638745
12.8059,663616
12.8107,596721
12.8154,611422
12.8202,643214
12.825,608836
12.8297,640762
12.8345,596359
12.8392,632619
12.844,635375
12.8488,630330
12.8535,608606
12.8583,606363
12.863,599746
12.8678,600225
12.8726,587316
12.8773,623502
12.8821,620620
12.8869,649505
12.8916,601268
12.8964,615445
12.9011,615288
12.9059,636701
12.9107,603252
12.9154,607151
12.9202,603424
12.925,615801
12.9297,610899
12.9345,630413
12.9392,621990
12.944,634991
12.9488,600304
12.9535,587147
12.9583,606410
12.963,593120
12.9678,586780
12.9726,618460
12.9773,613019
12.9821,584812
12.9869,605791
12.9916,598780
12.9964,634507
13.0011,629979
13.0059,621713
13.0107,586003
13.0154,596045
13.0202,574449
13.025,612981
13.0297,609505
13.0345,621481
13.0392,615323
13.044,620969
13.0488,648260
13.0535,622415
13.0583,637894
13.0631,669793
13.0678,754849
13.0726,856612
13.0773,950069
13.0821,1064988
13.0869,995970
13.0916,920158
13.0964,822004
13.1011,749065
13.1059,721142
13.1107,641033
13.1154,656298
13.1202,685284
13.125,733559
13.1297,765385
13.1345,838590
13.1392,896916
13.144,894839
13.1488,884660
13.1535,822825
13.1583,777406
13.1631,753345
13.1678,720224
13.1726,720138
13.1773,708558
13.1821,707167
13.1869,669383
13.1916,640736
13.1964,666688
13.2011,686629
13.2059,728089
13.2107,826459
13.2154,834379
13.2202,844909
13.225,773528
13.2297,747458
13.2345,726068
13.2392,695118
13.244,672053
13.2488,619332
13.2535,669801
13.2583,666587
13.2631,642055
13.2678,651831
13.2726,646715
13.2773,656311
13.2821,639741
13.2869,640267
13.2916,645537
13.2964,661605
13.3011,641634
13.3059,599349
13.3107,613106
13.3154,646190
13.3202,633200
13.325,643295
13.3297,626092
13.3345,621439
13.3392,610286
13.344,632486
13.3488,642797
13.3535,626343
13.3583,612606
13.3631,646010
13.3678,641491
13.3726,620607
13.3773,604813
13.3821,642805
13.3869,635271
13.3916,599917
13.3964,622849
13.4012,620381
13.4059,600230
13.4107,616621
13.4154,674892
13.4202,657094
13.425,631344
13.4297,658425
13.4345,652327
13.4392,682228
13.444,716171
13.4488,669427
13.4535,648670
13.4583,671628
13.4631,619904
13.4678,637816
13.4726,627906
13.4773,669019
13.4821,643122
13.4869,674828
13.4916,648326
13.4964,698637
13.5012,696573
13.5059,770342
13.5107,770888
13.5154,845234
13.5202,828053
13.525,814404
13.5297,721889
13.5345,673388
13.5392,677159
13.544,649570
13.5488,667783
13.5535,630617
13.5583,642008
13.5631,624071
13.5678,621754
13.5726,648344
13.5773,625512
13.5821,629486
13.5869,624474
13.5916,634025
13.5964,628307
13.6012,635371
13.6059,631776
13.6107,637404
13.6154,631915
13.6202,633053
13.625,636006
13.6297,636061
13.6345,649500
13.6392,615420
13.644,681110
13.6488,680986
13.6535,682594
13.6583,676905
13.6631,642260
13.6678,675757
13.6726,657185
13.6773,651748
13.6821,652664
13.6869,658580
13.6916,645254
13.6964,648886
13.7012,632320
13.7059,653711
13.7107,628117
13.7154,631631
13.7202,655629
13.725,631313
13.7297,624100
13.7345,619436
13.7393,665081
13.744,635102
13.7488,695586
13.7535,686852
13.7583,744636
13.7631,777589
13.7678,765753
13.7726,737495
13.7773,717968
13.7821,696455
13.7869,680639
13.7916,648686
13.7964,632798
13.8012,611688
13.8059,664228
13.8107,632291
13.8154,664770
13.8202,635551
13.825,629545
13.8297,598968
13.8345,608830
13.8393,646512
13.844,640937
13.8488,648767
13.8535,608431
13.8583,645518
13.8631,657254
13.8678,701482
13.8726,739991
13.8773,792910
13.8821,796573
13.8869,782213
13.8916,751128
13.8964,743717
13.9012,733940
13.9059,745318
13.9107,770505
13.9154,744172
13.9202,734172
13.925,743641
13.9297,682655
13.9345,720116
13.9393,674592
13.944,703670
13.9488,680086
13.9535,669660
13.9583,650530
13.9631,702189
13.9678,643110
13.9726,695061
13.9773,678498
13.9821,717480
13.9869,685642
13.9916,764368
13.9964,716187
14.0012,775401
14.0059,770796
14.0107,738917
14.0154,687569
14.0202,700615
14.025,676643
14.0297,673921
14.0345,726013
14.0393,716984
14.044,674992
14.0488,795108
14.0535,903099
14.0583,1047858
14.0631,1058011
14.0678,1053440
14.0726,1005205
14.0773,909096
14.0821,884133
14.0869,832598
14.0916,832610
14.0964,793507
14.1012,764314
14.1059,759685
14.1107,708740
14.1154,699449
14.1202,743580
14.125,717481
14.1297,697057
14.1345,706851
14.1393,721173
14.144,759012
14.1488,743723
14.1535,813478
14.1583,856085
14.1631,867293
14.1678,841243
14.1726,781675
14.1774,774878
14.1821,708331
14.1869,742506
14.1916,736443
14.1964,753642
14.2012,781440
14.2059,852307
14.2107,866005
14.2154,868126
14.2202,804856
14.225,791359
14.2297,847420
14.2345,918861
14.2393,1045319
14.244,1138259
14.2488,1130813
14.2535,1096135
14.2583,1011185
14.2631,907727
14.2678,898016
14.2726,832498
14.2774,784084
14.2821,733105
14.2869,686258
14.2916,747102
14.2964,765158
14.3012,719913
14.3059,709908
14.3107,716817
14.3154,702271
14.3202,724697
14.325,724478
14.3297,736541
14.3345,753289
14.3393,746373
14.344,784121
14.3488,757497
14.3535,739379
14.3583,731558
14.3631,798889
14.3678,779482
14.3726,848144
14.3774,892912
14.3821,973361
14.3869,1052540
14.3916,1125725
14.3964,1250912
14.4012,1368190
14.4059,1367960
14.4107,1295297
14.4154,1111978
14.4202,1008095
14.425,886352
14.4297,825213
14.4345,846596
14.4393,744935
14.444,780143
14.4488,786820
14.4535,757515
14.4583,761811
14.4631,717959
14.4678,772535
14.4726,768814
14.4774,742837
14.4821,767054
14.4869,748727
14.4916,758807
14.4964,772765
14.5012,779720
14.5059,747305
14.5107,780893
14.5155,766706
14.5202,769598
14.525,761640
14.5297,781517
14.5345,774340
14.5393,796221
14.544,830339
14.5488,808574
14.5535,759525
14.5583,798414
14.5631,744638
14.5678,772935
14.5726,740781
14.5774,786500
14.5821,764552
14.5869,729061
14.5916,747138
14.5964,738840
14.6012,746347
14.6059,742040
14.6107,766521
14.6155,757684
14.6202,758699
14.625,757308
14.6297,772951
14.6345,749081
14.6393,766258
14.644,752565
14.6488,739623
14.6535,752091
14.6583,777709
14.6631,750257
14.6678,793321
14.6726,780361
14.6774,788837
14.6821,756213
14.6869,752083
14.6916,773377
14.6964,782275
14.7012,791728
14.7059,736524
14.7107,753473
14.7155,720385
14.7202,756638
14.725,764630
14.7297,768266
14.7345,784656
14.7393,762692
14.744,804148
14.7488,868013
14.7535,906093
14.7583,943280
14.7631,926123
14.7678,898775
14.7726,850084
14.7774,845697
14.7821,824943
14.7869,761231
14.7916,753696
14.7964,748676
14.8012,780044
14.8059,779013
14.8107,743777
14.8155,744068
14.8202,761834
14.825,749439
14.8297,771931
14.8345,774180
14.8393,793259
14.844,781519
14.8488,787589
14.8536,773995
14.8583,750229
14.8631,734537
14.8678,759433
14.8726,765301
14.8774,747069
14.8821,723553
14.8869,759089
14.8916,743540
14.8964,738627
14.9012,743463
14.9059,722770
14.9107,754077
14.9155,746007
14.9202,734735
14.925,749336
14.9297,720164
14.9345,757514
14.9393,802699
14.944,819891
14.9488,881107
14.9536,859748
14.9583,813981
14.9631,782075
14.9678,766299
14.9726,788695
14.9774,751133
14.9821,751464
14.9869,758645
14.9916,797476
14.9964,724393
15.0012,765927
15.0059,765007
15.0107,797080
15.0155,771825
15.0202,751666
15.025,758560
15.0297,734157
15.0345,774775
15.0393,745234
15.044,752633
15.0488,768644
15.0536,744447
15.0583,747186
15.0631,765413
15.0678,764747
15.0726,774480
15.0774,797416
15.0821,749391
15.0869,787366
15.0916,746924
15.0964,733411
15.1012,771654
15.1059,777607
15.1107,768502
15.1155,741806
15.1202,738769
15.125,750662
15.1297,784614
15.1345,743254
15.1393,791929
15.144,763187
15.1488,744946
15.1536,780221
15.1583,796925
15.1631,856435
15.1678,877150
15.1726,927259
15.1774,876861
15.1821,861988
15.1869,872250
15.1917,816086
15.1964,837878
15.2012,830956
15.2059,839435
15.2107,853401
15.2155,843748
15.2202,861466
15.225,904077
15.2297,906468
15.2345,888447
15.2393,883971
15.244,877309
15.2488,863387
15.2536,826349
15.2583,837062
15.2631,827037
15.2678,803930
15.2726,819627
15.2774,785189
15.2821,792222
15.2869,771722
15.2917,805848
15.2964,808672
15.3012,800919
15.3059,794606
15.3107,827800
15.3155,852846
15.3202,852791
15.325,884140
15.3297,920687
15.3345,874143
15.3393,877096
15.344,814751
15.3488,833479
15.3536,815377
15.3583,768205
15.3631,803352
15.3678,794039
15.3726,793086
15.3774,805957
15.3821,761064
15.3869,803217
15.3917,842185
15.3964,803855
15.4012,781506
15.4059,780589
15.4107,820239
15.4155,800798
15.4202,821385
15.425,870656
15.4297,799834
15.4345,823641
15.4393,840387
15.444,812552
15.4488,836323
15.4536,839500
15.4583,815845
15.4631,888823
15.4678,848847
15.4726,904553
15.4774,923132
15.4821,900987
15.4869,891509
15.4917,811894
15.4964,806000
15.5012,832085
15.5059,859587
15.5107,860506
15.5155,832813
15.5202,834325
15.525,889757
15.5298,877354
15.5345,947923
15.5393,978023
15.544,945833
15.5488,962387
15.5536,922044
15.5583,921530
15.5631,877990
15.5678,925892
15.5726,871903
15.5774,868346
15.5821,852422
15.5869,834204
15.5917,827365
15.5964,817058
15.6012,845306
15.6059,798288
15.6107,847598
15.6155,824974
15.6202,866738
15.625,849788
15.6298,870645
15.6345,821556
15.6393,839098
15.644,847876
15.6488,891048
15.6536,852095
15.6583,848255
15.6631,872506
15.6678,852272
15.6726,905898
15.6774,957576
15.6821,970397
15.6869,1067754
15.6917,1129438
15.6964,1014935
15.7012,963170
15.7059,939867
15.7107,902113
15.7155,910693
15.7202,940325
15.725,942027
15.7298,1140604
15.7345,1667978
15.7393,2862465
15.744,5500724
15.7488,8975133
15.7536,12113418
15.7583,12344818
15.7631,9775147
15.7678,6442754
15.7726,3831418
15.7774,2213588
15.7821,1616105
15.7869,1350915
15.7917,1202566
15.7964,1138288
15.8012,1158117
15.8059,1153525
15.8107,1143728
15.8155,1102894
15.8202,1060284
15.825,1106606
15.8298,1040356
15.8345,1059657
15.8393,1104640
15.844,1111130
15.8488,1144749
15.8536,1252545
15.8583,1209250
15.8631,1282650
15.8679,1253939
15.8726,1277732
15.8774,1292720
15.8821,1339135
15.8869,1174420
15.8917,1169726
15.8964,1133272
15.9012,1138281
15.9059,1171370
15.9107,1090909
15.9155,1099779
15.9202,1109404
15.925,1041636
15.9298,1115130
15.9345,1043445
15.9393,1094418
15.944,1079767
15.9488,1109800
15.9536,1075661
15.9583,1101315
15.9631,1085097
15.9679,1141423
15.9726,1099363
15.9774,1136840
15.9821,1107589
15.9869,1127298
15.9917,1147516
15.9964,1099353
16.0012,1101129
16.0059,1133613
16.0107,1118459
16.0155,1203451
16.0202,1277233
16.025,1441015
16.0298,1515171
16.0345,1466951
16.0393,1362001
16.044,1253038
16.0488,1201204
16.0536,1179807
16.0583,1152294
16.0631,1154895
16.0679,1153006
16.0726,1189065
16.0774,1151807
16.0821,1152573
16.0869,1156883
16.0917,1190465
16.0964,1207070
16.1012,1176360
16.1059,1200718
16.1107,1236934
16.1155,1174005
16.1202,1246176
16.125,1270746
16.1298,1283044
16.1345,1223522
16.1393,1249404
16.144,1203389
16.1488,1207460
16.1536,1243406
16.1583,1303827
16.1631,1219846
16.1679,1260048
16.1726,1236554
16.1774,1247922
16.1821,1267358
16.1869,1239540
16.1916,1224832
16.1964,1256104
16.2012,1290460
16.206,1240191
16.2107,1265565
16.2155,1250130
16.2202,1301557
16.225,1295439
16.2297,1289930
16.2345,1303550
16.2393,1292945
16.244,1322941
16.2488,1305410
16.2536,1297908
16.2583,1322776
16.2631,1302949
16.2678,1322991
16.2726,1377396
16.2774,1336396
16.2821,1342043
16.2869,1385092
16.2917,1329826
16.2964,1369389
16.3012,1360608
16.3059,1379630
16.3107,1402434
16.3155,1375390
16.3202,1404308
16.325,1404813
16.3298,1427963
16.3345,1433710
16.3393,1349938
16.344,1429320
16.3488,1449404
16.3536,1459562
16.3583,1466889
16.3631,1529191
16.3679,1633837
16.3726,1679290
16.3774,1699371
16.3821,1632907
16.3869,1598523
16.3917,1542166
16.3964,1593036
16.4012,1618868
16.406,1755524
16.4107,1891357
16.4155,1942174
16.4202,1908088
16.425,1761736
16.4297,1597773
16.4345,1591097
16.4393,1618691
16.444,1572079
16.4488,1643677
16.4536,1718357
16.4583,1942807
16.4631,2146099
16.4678,2106525
16.4726,1987614
16.4774,1869632
16.4821,1750896
16.4869,1699815
16.4917,1660189
16.4964,1722663
16.5012,1716006
16.5059,1723574
16.5107,1687866
16.5155,1720633
16.5202,1718053
16.525,1706843
16.5298,1742942
16.5345,1800362
16.5393,1781280
16.544,1813951
16.5488,1779597
16.5536,1804571
16.5583,1759711
16.5631,1805620
16.5679,1838524
16.5726,1791491
16.5774,1773347
16.5821,1844865
16.5869,1808403
16.5917,1835286
16.5964,1793173
16.6012,1830483
16.606,1851946
16.6107,1889338
16.6155,1950926
16.6202,1955566
16.625,1955124
16.6298,1851679
16.6345,1949920
16.6393,1910961
16.6441,1887911
16.6488,1913444
16.6536,1911590
16.6583,1942307
16.6631,1910544
16.6679,1946632
16.6726,1914595
16.6774,1976918
16.6821,1901635
16.6869,1921140
16.6917,1930392
16.6964,1903297
16.7012,1971662
16.706,1972320
16.7107,1902470
16.7155,1964316
16.7202,1882016
16.725,1937949
16.7298,2035300
16.7345,1980358
16.7393,1994235
16.7441,2043446
16.7488,2030739
16.7536,1997511
16.7583,2060191
16.7631,2008824
16.7678,1892758
16.7726,2024023
16.7774,2044773
16.7821,2038563
16.7869,2005000
16.7917,2001773
16.7964,1983882
16.8012,2120994
16.8059,2087919
16.8107,2122526
16.8155,2127261
16.8202,2118326
16.825,2129586
16.8298,2132365
16.8345,2170730
16.8393,2265767
16.844,2183623
16.8488,2225833
16.8536,2116566
16.8583,2158080
16.8631,2232963
16.8679,2201351
16.8726,2252260
16.8774,2167320
16.8821,2130464
16.8869,2124815
16.8917,2191232
16.8964,2138032
16.9012,2102815
16.906,2187879
16.9107,2198969
16.9155,2289008
16.9202,2250016
16.925,2287080
16.9298,2237600
16.9345,2398315
16.9393,2306056
16.9441,2358358
16.9488,2263937
16.9536,2293505
16.9583,2276742
16.9631,2373191
16.9678,2263471
16.9726,2300484
16.9774,2412025
16.9822,2471246
16.9869,2506236
16.9917,2413334
16.9964,2345729
17.0012,2418554
17.0059,2375856
17.0107,2605277
17.0155,2783531
17.0202,2938721
17.025,2699331
17.0298,2572906
17.0345,2405361
17.0393,2432439
17.044,2367968
17.0488,2358278
17.0536,2392897
17.0583,2403278
17.0631,2367860
17.0679,2317908
17.0726,2342248
17.0774,2320965
17.0821,2399359
17.0869,2355141
17.0917,2355676
17.0964,2387392
17.1012,2363306
17.106,2380055
17.1107,2393679
17.1155,2547028
17.1202,2620352
17.125,2926954
17.1298,3153622
17.1345,3982291
17.1393,5436105
17.1441,6883977
17.1488,7118699
17.1536,5742547
17.1583,4153270
17.1631,3321539
17.1679,2948286
17.1726,2661783
17.1774,2628489
17.1822,2581640
17.1869,2601818
17.1917,2567595
17.1964,2645788
17.2012,2629922
17.206,2540085
17.2107,2609483
17.2155,2539974
17.2203,2562784
17.225,2520825
17.2298,2508347
17.2345,2509674
17.2393,2489314
17.2441,2556503
17.2488,2485317
17.2536,2484172
17.2583,2541634
17.2631,2537302
17.2679,2446164
17.2726,2532554
17.2774,2540672
17.2822,2580353
17.2869,2488084
17.2917,2487143
17.2964,2613344
17.3012,2884239
17.3059,3933596
17.3107,5872238
17.3155,8026854
17.3203,8860412
17.325,7590326
17.3298,5453696
17.3345,4081086
17.3393,3367702
17.344,3018962
17.3488,2850439
17.3536,2721465
17.3583,2743753
17.3631,2772827
17.3679,2650643
17.3726,2645649
17.3774,2695756
17.3821,2667060
17.3869,2612245
17.3917,2635462
17.3964,2657480
17.4012,2601022
17.406,2647091
17.4107,2622699
17.4155,2601724
17.4202,2613216
17.425,2594849
17.4298,2600572
17.4345,2685787
17.4393,2629078
17.4441,2583807
17.4488,2665579
17.4536,2645671
17.4583,2723816
17.4631,2632165
17.4679,2658126
17.4726,2704536
17.4774,2765189
17.4822,2730965
17.4869,2656305
17.4917,2707148
17.4964,2705855
17.5012,2685616
17.506,2692167
17.5107,2696448
17.5155,2657140
17.5203,2673551
17.525,2645600
17.5298,2657838
17.5345,2688024
17.5393,2712944
17.5441,2736348
17.5488,2654804
17.5536,2732025
17.5584,2611748
17.5631,2711126
17.5679,2752827
17.5726,2670083
17.5774,2767398
17.5822,2724203
17.5869,2720685
17.5917,2739745
17.5964,2835206
17.6012,2807278
17.606,2969453
17.6107,3022838
17.6155,3005361
17.6203,2854367
17.625,2799393
17.6298,2762921
17.6345,2729156
17.6393,2759353
17.6441,3138917
17.6488,4349185
17.6536,7603035
17.6584,14230263
17.6631,21536154
17.6679,24577154
17.6726,20916444
17.6774,14161694
17.6822,8650215
17.6869,5766304
17.6917,4443012
17.6964,3778322
17.7012,3471609
17.706,3385418
17.7107,3226166
17.7155,3103824
17.7203,3007304
17.725,2962705
17.7298,2996610
17.7345,2949885
17.7393,2933756
17.7441,2901429
17.7488,2839503
17.7536,2745318
17.7584,2881179
17.7631,2894579
17.7679,2919211
17.7726,3022847
17.7774,3180852
17.7822,3512390
17.7869,3783182
17.7917,3902524
17.7964,3693243
17.8012,3300860
17.806,3120226
17.8107,3047964
17.8155,2927507
17.8203,2957618
17.825,2857400
17.8298,2873067
17.8345,2848462
17.8393,2834176
17.8441,2840343
17.8488,2821573
17.8536,2854525
17.8584,2768530
17.8631,2868684
17.8679,2764930
17.8726,2806348
17.8774,2857850
17.8821,2799614
17.8869,2787193
17.8917,2814220
17.8965,2826221
17.9012,2848517
17.906,2955787
17.9107,2964280
17.9155,3133102
17.9202,3204835
17.925,3277304
17.9298,3188915
17.9345,3042461
17.9393,2957639
17.9441,2877364
17.9488,2930413
17.9536,2865010
17.9583,2868413
17.9631,2916953
17.9679,2901746
17.9726,2876478
17.9774,2833031
17.9822,2902490
17.9869,2838105
17.9917,2820130
17.9964,2800864
18.0012,2786114
18.006,2812808
18.0107,2818955
18.0155,2798238
18.0203,2784729
18.025,2793027
18.0298,2819992
18.0345,2784030
18.0393,2835777
18.0441,2863892
18.0488,2842034
18.0536,2952366
18.0584,2882146
18.0631,2048598
18.0679,2769408
18.0726,3020166
18.0774,3579996
18.0822,5546070
18.0869,10571935
18.0917,19793828
18.0965,31683698
18.1012,39497732
18.106,36696312
18.1107,26173200
18.1155,15997593
18.1203,9879519
18.125,6751056
18.1298,5300483
18.1345,4616046
18.1393,4223379
18.1441,4041070
18.1488,4113294
18.1536,4432455
18.1584,4800190
18.1631,4938875
18.1679,4704566
18.1726,4340863
18.1774,3894682
18.1822,3545643
18.1869,3327407
18.1917,3270950
18.1965,3062114
18.2012,3108953
18.206,3064743
18.2107,2950954
18.2155,2966104
18.2203,2955000
18.225,3000856
18.2298,2959113
18.2346,2971344
18.2393,2948577
18.2441,3014619
18.2488,2983426
18.2536,2927169
18.2584,2989166
18.2631,2971368
18.2679,3193098
18.2726,3767059
18.2774,5477064
18.2822,9069852
18.2869,15181505
18.2917,22629296
18.2965,26907424
18.3012,24757280
18.306,18869246
18.3107,12652784
18.3155,8604844
18.3203,6180757
18.325,5014783
18.3298,4449789
18.3346,3998866
18.3393,3794866
18.3441,3714326
18.3488,3451367
18.3536,3348771
18.3584,3342376
18.3631,3277421
18.3679,3255722
18.3726,3114893
18.3774,3014591
18.3822,3073484
18.3869,3037541
18.3917,3052106
18.3965,3025843
18.4012,2951563
18.406,3052980
18.4107,2971635
18.4155,2978228
18.4203,2993998
18.425,2922239
18.4298,2943433
18.4346,2955263
18.4393,2937209
18.4441,2961688
18.4488,2886552
18.4536,2925224
18.4583,2894588
18.4631,2923807
18.4679,2950622
18.4726,2896729
18.4774,2932046
18.4822,2858860
18.4869,2976661
18.4917,2980142
18.4964,2903529
18.5012,2937880
18.506,2917632
18.5107,2855000
18.5155,2998002
18.5203,2948140
18.525,2884426
18.5298,2908965
18.5345,2951050
18.5393,2932589
18.5441,2966569
18.5488,2936276
18.5536,2875682
18.5584,2859803
18.5631,2909800
18.5679,2902944
18.5726,2848704
18.5774,2879519
18.5822,2796064
18.5869,2949343
18.5917,2869745
18.5965,2957085
18.6012,2916159
18.606,2927248
18.6107,2846806
18.6155,2955264
18.6203,2981931
18.625,3097237
18.6298,3169740
18.6346,3188179
18.6393,3167421
18.6441,3194946
18.6488,3082254
18.6536,3025220
18.6584,2950445
18.6631,2909822
18.6679,2975243
18.6727,2986867
18.6774,3077800
18.6822,3600868
18.6869,4837418
18.6917,7071181
18.6965,10743598
18.7012,15369230
18.706,18271668
18.7107,18161928
18.7155,14822341
18.7203,11240560
18.725,7976014
18.7298,5920257
18.7346,4770621
18.7393,4245958
18.7441,3727866
18.7488,3504122
18.7536,3500306
18.7584,3270578
18.7631,3239301
18.7679,3216992
18.7727,3128390
18.7774,3184075
18.7822,3071328
18.7869,3004268
18.7917,2997678
18.7965,3010188
18.8012,2998302
18.806,2976314
18.8107,2965929
18.8155,3036104
18.8203,3023916
18.825,3018956
18.8298,3113852
18.8346,3161499
18.8393,3372559
18.8441,3660109
18.8488,3873332
18.8536,3834176
18.8584,3747073
18.8631,3550646
18.8679,3322741
18.8727,3209697
18.8774,3158634
18.8822,3045561
18.8869,3057545
18.8917,2989308
18.8965,2961502
18.9012,2970002
18.906,2989996
18.9108,2977329
18.9155,2881253
18.9203,2991856
18.925,2993190
18.9298,2935412
18.9346,2949271
18.9393,2936501
18.9441,2937357
18.9488,2968760
18.9536,2964004
18.9584,2916417
18.9631,2886127
18.9679,2877162
18.9727,2892702
18.9774,2878398
18.9822,2892267
18.9869,2950720
18.9917,2866778
18.9964,2952818
19.0012,2927162
19.006,2916007
19.0108,2973772
19.0155,2843214
19.0203,2856691
19.025,2959260
19.0298,2922116
19.0345,2959421
19.0393,2937174
19.0441,2788569
19.0488,2867713
19.0536,2803462
19.0584,2890879
19.0631,2881208
19.0679,2947623
19.0726,2937366
19.0774,2864162
19.0822,2924595
19.0869,2871917
19.0917,2970801
19.0965,2916703
19.1012,3001728
19.106,2764399
19.1107,2947957
19.1155,2856659
19.1203,2897833
19.125,2945138
19.1298,2871078
19.1346,2848547
19.1393,2886755
19.1441,2870404
19.1488,2856137
19.1536,2860550
19.1584,2930577
19.1631,2879478
19.1679,2914132
19.1727,2937434
19.1774,2897698
19.1822,2883300
19.1869,2925557
19.1917,2888644
19.1965,2933198
19.2012,2998835
19.206,3313104
19.2108,3578576
19.2155,4522682
19.2203,5609302
19.225,7110050
19.2298,8418335
19.2346,9239927
19.2393,9163895
19.2441,8194763
19.2489,6774620
19.2536,5581618
19.2584,4717650
19.2631,4006767
19.2679,3645523
19.2727,3425325
19.2774,3303735
19.2822,3170121
19.2869,3138119
19.2917,3159160
19.2965,3129662
19.3012,3202269
19.306,3274399
19.3108,3360230
19.3155,3405990
19.3203,3393455
19.325,3392570
19.3298,3247048
19.3346,3152708
19.3393,3112370
19.3441,2943389
19.3489,2982942
19.3536,2876478
19.3584,3002768
19.3631,3027490
19.3679,2909584
19.3727,2944119
19.3774,2962633
19.3822,2888483
19.3869,2933785
19.3917,2935527
19.3965,2919103
19.4012,2959232
19.406,2943378
19.4108,2868159
19.4155,2987858
19.4203,2940415
19.425,2910980
19.4298,2999654
19.4346,2827161
19.4393,2871974
19.4441,2945626
19.4489,3106584
19.4536,3118592
19.4584,3560232
19.4631,4139903
19.4679,5071568
19.4727,6106520
19.4774,7212136
19.4822,7867249
19.4869,7818982
19.4917,7391938
19.4965,6668324
19.5012,5632706
19.506,4706093
19.5108,4050045
19.5155,3698515
19.5203,3432777
19.525,3297847
19.5298,3246865
19.5346,3170839
19.5393,3080872
19.5441,3027014
19.5489,3062791
19.5536,3034850
19.5584,3047561
19.5631,2913989
19.5679,2935069
19.5726,3011382
19.5774,2910623
19.5822,2981674
19.5869,2939834
19.5917,2974488
19.5965,2925402
19.6012,2933843
19.606,2947810
19.6107,2864690
19.6155,2938247
19.6203,2882045
19.625,2957937
19.6298,2885868
19.6346,2873379
19.6393,2942178
19.6441,2916584
19.6488,2914804
19.6536,2852704
19.6584,2973503
19.6631,2891412
19.6679,2900649
19.6727,2847841
19.6774,2893664
19.6822,2952193
19.687,2868408
19.6917,2930725
19.6965,3004792
19.7012,2840796
19.706,2944207
19.7108,2917587
19.7155,2896513
19.7203,2864122
19.725,2871006
19.7298,2823520
19.7346,2887084
19.7393,2909631
19.7441,2911273
19.7489,2868690
19.7536,2905314
19.7584,2910824
19.7631,2897352
19.7679,2951023
19.7727,2904328
19.7774,2851881
19.7822,2934950
19.787,2822250
19.7917,2945970
19.7965,2844756
19.8012,2877214
19.806,2866483
19.8108,2855346
19.8155,2853204
19.8203,2860726
19.825,2820775
19.8298,2857541
19.8346,2833270
19.8393,2852285
19.8441,2863754
19.8489,2887912
19.8536,2901684
19.8584,2855197
19.8631,2866169
19.8679,2913154
19.8727,2881478
19.8774,2857691
19.8822,2961593
19.887,2837122
19.8917,2881013
19.8965,2893926
19.9012,2866021
19.906,2870834
19.9108,2910969
19.9155,2862670
19.9203,2915867
19.925,2935086
19.9298,2892584
19.9346,2894391
19.9393,2954525
19.9441,2888490
19.9489,2972242
19.9536,2866358
19.9584,2913425
19.9631,2871235
19.9679,2902568
19.9727,2912481
19.9774,2987363
19.9822,3007447
19.987,2952745
19.9917,3081175
19.9965,3119962
20.0012,3214198
20.006,3304053
20.0108,3321676
20.0155,3423435
20.0203,3393479
20.0251,3346018
20.0298,3324863
20.0346,3206874
20.0393,2979643
20.0441,2997680
20.0489,2994154
20.0536,3039583
20.0584,2955831
20.0631,2929366
20.0679,2986380
20.0727,2877148
20.0774,2953187
20.0822,2934498
20.087,2905323
20.0917,2918280
20.0965,2970011
20.1012,2976771
20.106,2933662
20.1108,2904270
20.1155,2873174
20.1203,2876229
20.1251,2917030
20.1298,2862607
20.1346,2856056
20.1393,2869817
20.1441,2877124
20.1488,2870191
20.1536,2834991
20.1584,2877885
20.1631,2882556
20.1679,2767148
20.1727,2843797
20.1774,2930683
20.1822,2820114
20.187,2839593
20.1917,2893634
20.1965,2959789
20.2012,2960880
20.206,2937812
20.2108,2976714
20.2155,2947310
20.2203,2904712
20.2251,2858351
20.2298,2829535
20.2346,2953897
20.2393,2873464
20.2441,2901448
20.2489,2900137
20.2536,2893552
20.2584,2968546
20.2631,2809889
20.2679,2835346
20.2727,2822383
20.2774,2861415
20.2822,2839407
20.287,2842575
20.2917,2922372
20.2965,2811388
20.3012,2882714
20.306,2883271
20.3108,2880741
20.3155,2878752
20.3203,2920673
20.3251,2862733
20.3298,2909414
20.3346,2887242
20.3393,2858474
20.3441,2932112
20.3489,2852765
20.3536,2817344
20.3584,2816290
20.3632,2778038
20.3679,2800581
20.3727,2904311
20.3774,2915081
20.3822,2877386
20.387,2814889
20.3917,2840972
20.3965,2805255
20.4012,2840248
20.406,2829726
20.4108,2841500
20.4155,2842746
20.4203,2818400
20.4251,2980628
20.4298,2832636
20.4346,2828526
20.4393,2842781
20.4441,2905258
20.4489,2914680
20.4536,2835640
20.4584,2850611
20.4632,2912250
20.4679,2804528
20.4727,2866101
20.4774,2815015
20.4822,2892003
20.487,2893244
20.4917,2843830
20.4965,2871854
20.5012,2866197
20.506,2910978
20.5108,2862483
20.5155,2842007
20.5203,2821961
20.5251,2820183
20.5298,2830141
20.5346,2871425
20.5393,2849055
20.5441,2800363
20.5489,2863191
20.5536,2826520
20.5584,2882309
20.5632,2852289
20.5679,2727334
20.5727,2796474
20.5774,2770539
20.5822,2814394
20.587,2852467
20.5917,2842134
20.5965,2889928
20.6012,2851532
20.606,2788418
20.6108,2874924
20.6155,2873183
20.6203,2814924
20.6251,2813095
20.6298,2815546
20.6346,2837725
20.6393,2827720
20.6441,2831815
20.6489,2819854
20.6536,2880619
20.6584,2792152
20.6632,2812733
20.6679,2845714
20.6727,2890548
20.6774,2876636
20.6822,2902178
20.687,2945030
20.6917,2840522
20.6965,2870329
20.7013,2855850
20.706,2966487
20.7108,2955821
20.7155,2884395
20.7203,2918767
20.7251,2954093
20.7298,2940169
20.7346,2911662
20.7393,2860562
20.7441,2915551
20.7489,2856097
20.7536,2811437
20.7584,2896231
20.7632,2872652
20.7679,2913794
20.7727,2860358
20.7774,2849890
20.7822,2840300
20.787,2872441
20.7917,2867574
20.7965,2789555
20.8013,2849416
20.806,2808332
20.8108,2843654
20.8155,2857370
20.8203,2851361
20.8251,2858304
20.8298,2893132
20.8346,2842871
20.8393,2843108
20.8441,2808187
20.8489,2875819
20.8536,2820011
20.8584,2861532
20.8632,2807178
20.8679,2868005
20.8727,2779818
20.8774,2912090
20.8822,2789701
20.887,2906141
20.8917,2768188
20.8965,2824276
20.9013,2824759
20.906,2869222
20.9108,2845465
20.9155,2820013
20.9203,2843575
20.9251,2892213
20.9298,2805962
20.9346,2854433
20.9393,2848456
20.9441,2790848
20.9489,2742072
20.9536,2827931
20.9584,2805080
20.9632,2832241
20.9679,2811185
20.9727,2781110
20.9774,2835163
20.9822,2730850
20.987,2848429
20.9917,2890770
20.9965,2898535
21.0013,2782702
21.006,2839528
21.0108,2832938
21.0155,2777817
21.0203,2829434
21.0251,2851787
21.0298,2841663
21.0346,2948293
21.0394,2904798
21.0441,2865822
21.0489,2994013
21.0536,2956322
21.0584,2963157
21.0632,2863862
21.0679,2945073
21.0727,2845803
21.0774,2905357
21.0822,2884882
21.087,2874813
21.0917,2951391
21.0965,2810538
21.1013,2806331
21.106,2835775
21.1108,2832477
21.1155,2754365
21.1203,2880019
21.1251,2864523
21.1298,2867610
21.1346,2889563
21.1394,2794860
21.1441,2846398
21.1489,2785324
21.1536,2742925
21.1584,2902501
21.1632,2849367
21.1679,2764578
21.1727,2806979
21.1774,2783445
21.1822,2793400
21.187,2782004
21.1917,2805344
21.1965,2754353
21.2013,2845979
21.206,2822831
21.2108,2807286
21.2155,2854894
21.2203,2843984
21.2251,2850656
21.2298,2797642
21.2346,2852189
21.2394,2854483
21.2441,2785395
21.2489,2818137
21.2536,2723283
21.2584,2842060
21.2632,2847067
21.2679,2834322
21.2727,2860627
21.2774,2814643
21.2822,2837974
21.287,2783080
21.2917,2767097
21.2965,2941200
21.3013,2916754
21.306,2808688
21.3108,2876536
21.3155,2837943
21.3203,2889392
21.3251,2880893
21.3298,2848078
21.3346,2751893
21.3394,2740119
21.3441,2769508
21.3489,2769182
21.3536,2754989
21.3584,2776093
21.3632,2829854
21.3679,2840480
21.3727,2855282
21.3775,2831718
21.3822,2865561
21.387,2820289
21.3917,2811327
21.3965,2769111
21.4013,2790831
21.406,2852625
21.4108,2741565
21.4155,2834621
21.4203,2805732
21.4251,2835813
21.4298,2831561
21.4346,2852430
21.4394,2784828
21.4441,2828124
21.4489,2878892
21.4536,2864920
21.4584,2769355
21.4632,2781344
21.4679,2785150
21.4727,2827698
21.4775,2799885
21.4822,2707738
21.487,2830439
21.4917,2853689
21.4965,2810993
