D:\DATA\HAMBERGER\NICK\20230701\20230701_5-26-23_NBenthi_03.D  1 Jul 23   5:54 pm
Start of data points
4.09165,2996608
4.09642,2924428
4.10117,2775631
4.10593,2760114
4.1107,2756812
4.11547,2822033
4.12022,2858422
4.12498,3046372
4.12975,3162580
4.1345,2905520
4.13927,2764377
4.14403,2724401
4.1488,2815786
4.15355,2693527
4.15832,2554303
4.16308,2427115
4.16785,2394248
4.1726,2417370
4.17737,2373911
4.18213,2331094
4.18688,2455297
4.19165,2465258
4.19642,2548650
4.20118,2390319
4.20593,2320644
4.2107,2295145
4.21547,2258952
4.22022,2306451
4.22498,2244656
4.22975,2216863
4.23452,2224625
4.23927,2245202
4.24403,2300502
4.2488,2346434
4.25355,2179689
4.25832,2209556
4.26308,2152366
4.26785,2212028
4.2726,2195628
4.27737,2166226
4.28213,2302918
4.28688,2431747
4.29165,2337942
4.29642,2161222
4.30118,2075607
4.30593,2015075
4.3107,2073412
4.31547,2104143
4.32022,2026610
4.32498,2114748
4.32975,2207178
4.33452,2366908
4.33927,2229168
4.34403,2087939
4.3488,2120881
4.35357,2186416
4.35832,2368161
4.36308,2485693
4.36785,2549901
4.3726,2474897
4.37737,2416619
4.38213,2290918
4.3869,2262077
4.39165,2263861
4.39642,2222321
4.40118,2169157
4.40593,2080334
4.4107,2097378
4.41547,2136410
4.42023,2054887
4.42498,2101180
4.42975,2285118
4.43452,2317829
4.43927,2184069
4.44403,2114324
4.4488,2162456
4.45357,2180581
4.45832,2031751
4.46308,2047911
4.46785,1941199
4.4726,2033589
4.47737,1975921
4.48213,1983543
4.4869,1930698
4.49165,1914787
4.49642,1999509
4.50118,2009234
4.50595,1923306
4.5107,1922726
4.51547,2003785
4.52023,2052628
4.52498,2158490
4.52975,2018152
4.53452,1940920
4.53928,2013880
4.54403,2090111
4.5488,2071665
4.55357,2014824
4.55832,2055089
4.56308,2157685
4.56785,2161831
4.57262,2411152
4.57737,2909150
4.58213,3006519
4.5869,2736836
4.59165,2528888
4.59642,2227235
4.60118,2081201
4.60595,2002297
4.6107,1953092
4.61547,1989262
4.62023,1901557
4.62498,1933471
4.62975,1910021
4.63452,1868533
4.63928,1917218
4.64403,1831655
4.6488,1849712
4.65357,1836586
4.65832,1824400
4.66308,1768157
4.66785,1814040
4.67262,1952650
4.67737,2044724
4.68213,1934929
4.6869,1921658
4.69167,1825902
4.69642,1837982
4.70118,1773738
4.70595,1743464
4.7107,1760715
4.71547,1748618
4.72023,1787170
4.725,1765626
4.72975,1753283
4.73452,1780527
4.73928,1867892
4.74403,1816579
4.7488,1820692
4.75357,1841647
4.75833,1897379
4.76308,1902094
4.76785,1856734
4.77262,1840090
4.77737,1858440
4.78213,1768082
4.7869,1702555
4.79167,1726363
4.79642,1693790
4.80118,1708150
4.80595,1759066
4.8107,1738164
4.81547,1731961
4.82023,1691986
4.825,1740138
4.82975,1782341
4.83452,1756690
4.83928,1764143
4.84403,1739340
4.8488,1766454
4.85357,1766652
4.85833,1758795
4.86308,1791185
4.86785,1819082
4.87262,1810509
4.87738,1884626
4.88213,1808984
4.8869,1790734
4.89167,1833006
4.89642,1821134
4.90118,1800374
4.90595,1799823
4.91072,1799075
4.91547,1778689
4.92023,1795130
4.925,1750764
4.92975,1806498
4.93452,1818266
4.93928,1850490
4.94405,1825733
4.9488,1803767
4.95357,1761999
4.95833,1796648
4.96308,1787648
4.96785,1774771
4.97262,1729966
4.97738,1732339
4.98213,1772891
4.9869,1811621
4.99167,1728703
4.99642,1759167
5.00118,1690593
5.00595,1710499
5.01072,1747111
5.01547,1652096
5.02023,1690252
5.025,1652662
5.02977,1692257
5.03452,1672359
5.03928,1622044
5.04405,1633926
5.0488,1620951
5.05357,1633399
5.05833,1635424
5.0631,1594729
5.06785,1622783
5.07262,1591076
5.07738,1582388
5.08213,1563454
5.0869,1560370
5.09167,1600092
5.09643,1597422
5.10118,1603762
5.10595,1572927
5.11072,1584827
5.11547,1580461
5.12023,1544046
5.125,1608629
5.12977,1637142
5.13452,1662029
5.13928,1699439
5.14405,1728117
5.1488,1732803
5.15357,1673874
5.15833,1745619
5.1631,1713769
5.16785,1728698
5.17262,1729147
5.17738,1781950
5.18213,1725654
5.1869,1810084
5.19167,1729501
5.19643,1765940
5.20118,1698352
5.20595,1651119
5.21072,1676829
5.21548,1647471
5.22023,1693574
5.225,1644674
5.22977,1684690
5.23452,1796915
5.23928,1715245
5.24405,1693780
5.24882,1729643
5.25357,1715894
5.25833,1806195
5.2631,1838916
5.26785,1906412
5.27262,2125668
5.27738,2163578
5.28215,2067114
5.2869,1905853
5.29167,1759350
5.29643,1720873
5.30118,1660446
5.30595,1698402
5.31072,1630658
5.31548,1644473
5.32023,1612859
5.325,1652698
5.32977,1657589
5.33452,1645755
5.33928,1681556
5.34405,1664561
5.34882,1643857
5.35357,1680527
5.35833,1654346
5.3631,1611670
5.36787,1727031
5.37262,1599809
5.37738,1630447
5.38215,1637578
5.3869,1662270
5.39167,1629678
5.39643,1630811
5.4012,1622005
5.40595,1638867
5.41072,1622710
5.41548,1661474
5.42023,1640230
5.425,1655353
5.42977,1691219
5.43453,1654029
5.43928,1652600
5.44405,1661708
5.44882,1653799
5.45357,1648463
5.45833,1596059
5.4631,1617340
5.46787,1628441
5.47262,1590159
5.47738,1571041
5.48215,1592076
5.4869,1561414
5.49167,1645294
5.49643,1597439
5.5012,1590199
5.50595,1589788
5.51072,1613388
5.51548,1573368
5.52023,1594306
5.525,1593889
5.52977,1570624
5.53453,1599046
5.53928,1526324
5.54405,1622510
5.54882,1572083
5.55358,1564409
5.55833,1557316
5.5631,1557421
5.56787,1527312
5.57262,1559757
5.57738,1488663
5.58215,1540051
5.58692,1526551
5.59167,1568109
5.59643,1528300
5.6012,1518421
5.60595,1503460
5.61072,1536101
5.61548,1515754
5.62025,1471977
5.625,1513537
5.62977,1538570
5.63453,1520195
5.63928,1474609
5.64405,1445869
5.64882,1500792
5.65358,1492293
5.65833,1517592
5.6631,1476138
5.66787,1521048
5.67262,1502000
5.67738,1483501
5.68215,1456781
5.68692,1445197
5.69167,1503824
5.69643,1448874
5.7012,1453775
5.70597,1465820
5.71072,1523085
5.71548,1465546
5.72025,1416749
5.725,1477080
5.72977,1476518
5.73453,1489403
5.7393,1484093
5.74405,1444408
5.74882,1422810
5.75358,1518502
5.75833,1476087
5.7631,1497215
5.76787,1487864
5.77263,1457504
5.77738,1461573
5.78215,1484908
5.78692,1528901
5.79167,1528361
5.79643,1525859
5.8012,1579617
5.80597,1516696
5.81072,1494942
5.81548,1465016
5.82025,1486200
5.825,1495750
5.82977,1493021
5.83453,1454306
5.8393,1437313
5.84405,1451637
5.84882,1464788
5.85358,1439040
5.85833,1442522
5.8631,1473457
5.86787,1426740
5.87263,1455238
5.87738,1466862
5.88215,1495175
5.88692,1448139
5.89168,1438785
5.89643,1487534
5.9012,1435452
5.90597,1500468
5.91072,1420975
5.91548,1472456
5.92025,1510473
5.92502,1496244
5.92977,1488794
5.93453,1510488
5.9393,1662395
5.94405,1610599
5.94882,1678801
5.95358,1700889
5.95835,1803173
5.9631,2085719
5.96787,2321917
5.97263,2209205
5.97738,1969612
5.98215,1816571
5.98692,1719525
5.99168,1716120
5.99643,1706913
6.0012,1656886
6.00597,1641271
6.01072,1594775
6.01548,1668674
6.02025,1611737
6.02502,1616671
6.02977,1538246
6.03453,1564567
6.0393,1543231
6.04405,1567656
6.04882,1552096
6.05358,1624453
6.05835,1553661
6.0631,1635898
6.06787,1593118
6.07263,1641710
6.0774,1657419
6.08215,1686298
6.08692,1741664
6.09168,1867045
6.09643,1744036
6.1012,1703257
6.10597,1664825
6.11073,1551654
6.11548,1544185
6.12025,1525204
6.12502,1511646
6.12977,1520733
6.13453,1456330
6.1393,1490050
6.14407,1466728
6.14882,1440860
6.15358,1468235
6.15835,1496685
6.1631,1441495
6.16787,1453309
6.17263,1521014
6.1774,1600947
6.18215,1632133
6.18692,1631605
6.19168,1530054
6.19643,1508337
6.2012,1485816
6.20597,1461353
6.21073,1486278
6.21548,1496145
6.22025,1555180
6.22502,1533905
6.22978,1541743
6.23453,1465530
6.2393,1491834
6.24407,1450738
6.24882,1461184
6.25358,1427694
6.25835,1469799
6.26312,1441687
6.26787,1393886
6.27263,1437799
6.2774,1392811
6.28215,1400535
6.28692,1329671
6.29168,1370157
6.29645,1347849
6.3012,1355111
6.30597,1322421
6.31073,1432171
6.31548,1385917
6.32025,1434329
6.32502,1367242
6.32978,1434214
6.33453,1318067
6.3393,1367788
6.34407,1341382
6.34882,1369688
6.35358,1358251
6.35835,1375575
6.36312,1324340
6.36787,1339493
6.37263,1345509
6.3774,1280723
6.38215,1311900
6.38692,1284916
6.39168,1281969
6.39645,1343470
6.4012,1355259
6.40597,1332825
6.41073,1419794
6.4155,1461541
6.42025,1653379
6.42502,1462367
6.42978,1398216
6.43453,1324769
6.4393,1384964
6.44407,1334303
6.44883,1299316
6.45358,1314055
6.45835,1323136
6.46312,1277285
6.46787,1308176
6.47263,1305347
6.4774,1267618
6.48217,1272148
6.48692,1273201
6.49168,1287350
6.49645,1279427
6.5012,1289563
6.50597,1263194
6.51073,1220627
6.5155,1243413
6.52025,1239440
6.52502,1297580
6.52978,1249083
6.53453,1286594
6.5393,1303744
6.54407,1268485
6.54883,1242663
6.55358,1188765
6.55835,1205282
6.56312,1155042
6.56788,1240342
6.57263,1206994
6.5774,1185569
6.58217,1210157
6.58692,1249802
6.59168,1202212
6.59645,1197437
6.60122,1222981
6.60597,1217516
6.61073,1202527
6.6155,1190827
6.62025,1197363
6.62502,1177766
6.62978,1207609
6.63455,1231871
6.6393,1212706
6.64407,1216284
6.64883,1205382
6.65358,1226262
6.65835,1230803
6.66312,1184542
6.66788,1197457
6.67263,1176049
6.6774,1242751
6.68217,1151590
6.68692,1143041
6.69168,1195755
6.69645,1231217
6.70122,1191758
6.70597,1184298
6.71073,1146083
6.7155,1206389
6.72025,1187047
6.72502,1170867
6.72978,1185125
6.73455,1164717
6.7393,1165227
6.74407,1147220
6.74883,1130029
6.7536,1146032
6.75835,1173927
6.76312,1155807
6.76788,1195786
6.77263,1127698
6.7774,1159600
6.78217,1156465
6.78693,1180649
6.79168,1176566
6.79645,1205863
6.80122,1200133
6.80597,1158838
6.81073,1168402
6.8155,1152498
6.82027,1216484
6.82502,1182430
6.82978,1382182
6.83455,1657470
6.8393,1886407
6.84407,1980501
6.84883,1767765
6.8536,1460644
6.85835,1297933
6.86312,1235607
6.86788,1174995
6.87263,1202442
6.8774,1115535
6.88217,1144602
6.88693,1075963
6.89168,1064786
6.89645,1142606
6.90122,1119328
6.90597,1153591
6.91073,1156019
6.9155,1156839
6.92027,1124219
6.92502,1113859
6.92978,1165156
6.93455,1124818
6.93932,1078920
6.94407,1101906
6.94883,1138617
6.9536,1106777
6.95835,1081839
6.96312,1131447
6.96788,1097731
6.97265,1132711
6.9774,1079501
6.98217,1123835
6.98693,1059646
6.99168,1086783
6.99645,1039534
7.00122,1077803
7.00598,1013938
7.01073,1037377
7.0155,1078635
7.02027,1039512
7.02502,1071290
7.02978,1028483
7.03455,1081131
7.03932,1083813
7.04407,1026769
7.04883,1091731
7.0536,1057964
7.05835,1085441
7.06312,1030832
7.06788,1023766
7.07265,1052551
7.0774,1048481
7.08217,1055933
7.08693,1023154
7.0917,1037158
7.09645,1039291
7.10122,994834
7.10598,1032415
7.11073,974342
7.1155,980244
7.12027,1002640
7.12503,1012321
7.12978,980186
7.13455,986480
7.13932,1000356
7.14407,1031010
7.14883,966577
7.1536,1043400
7.15837,1004540
7.16312,979748
7.16788,996952
7.17265,1031447
7.1774,970061
7.18217,956501
7.18693,972716
7.1917,960978
7.19645,995813
7.20122,992108
7.20598,967316
7.21073,975070
7.2155,957721
7.22027,975564
7.22503,960116
7.22978,946740
7.23455,957802
7.23932,997296
7.24407,981692
7.24883,951110
7.2536,962077
7.25837,963294
7.26312,957657
7.26788,978370
7.27265,923183
7.27742,932477
7.28217,948289
7.28693,923417
7.2917,925666
7.29645,946314
7.30122,945875
7.30598,925266
7.31075,956575
7.3155,912143
7.32027,930258
7.32503,967066
7.32978,936941
7.33455,927714
7.33932,925717
7.34408,980768
7.34883,928270
7.3536,913349
7.35837,931811
7.36312,922551
7.36788,924967
7.37265,896335
7.37742,949471
7.38217,897193
7.38693,916103
7.3917,902764
7.39645,898009
7.40122,928886
7.40598,885648
7.41075,934527
7.4155,892733
7.42027,919892
7.42503,905871
7.4298,899250
7.43455,906515
7.43932,900173
7.44408,904668
7.44883,917459
7.4536,902120
7.45837,878082
7.46313,913515
7.46788,940689
7.47265,906477
7.47742,893607
7.48217,869857
7.48693,885522
7.4917,915398
7.49647,903821
7.50122,847292
7.50598,904462
7.51075,892325
7.5155,885329
7.52027,947035
7.52503,931558
7.5298,1056984
7.53455,1104615
7.53932,1155747
7.54408,1126377
7.54883,1120380
7.5536,1021330
7.55837,976933
7.56313,969760
7.56788,913985
7.57265,924128
7.57742,883558
7.58217,910672
7.58693,897783
7.5917,894367
7.59647,893030
7.60122,940649
7.60598,890075
7.61075,907408
7.61552,923323
7.62027,914851
7.62503,890435
7.6298,892845
7.63455,862010
7.63932,847925
7.64408,834703
7.64885,880690
7.6536,871451
7.65837,866932
7.66313,889105
7.66788,860513
7.67265,868426
7.67742,838942
7.68218,814474
7.68693,848230
7.6917,836296
7.69647,828351
7.70122,838109
7.70598,821505
7.71075,820254
7.71552,811080
7.72027,803551
7.72503,781698
7.7298,823346
7.73455,810893
7.73932,833662
7.74408,810421
7.74885,809767
7.7536,799351
7.75837,805810
7.76313,851942
7.76788,788702
7.77265,809359
7.77742,799910
7.78218,822307
7.78693,854405
7.7917,838750
7.79647,810499
7.80123,819444
7.80598,814178
7.81075,816357
7.81552,859504
7.82027,865375
7.82503,908577
7.8298,895898
7.83457,897101
7.83932,918423
7.84408,843812
7.84885,894525
7.8536,865639
7.85837,831439
7.86313,811751
7.8679,856315
7.87265,838893
7.87742,812498
7.88218,844670
7.88693,836790
7.8917,819914
7.89647,849557
7.90123,805772
7.90598,804164
7.91075,811429
7.91552,835462
7.92027,937698
7.92503,970712
7.9298,1058658
7.93457,1054592
7.93932,999208
7.94408,909009
7.94885,895014
7.95362,849858
7.95837,814717
7.96313,820197
7.9679,832355
7.97265,846948
7.97742,817820
7.98218,847089
7.98695,828889
7.9917,787631
7.99647,807697
8.00123,812298
8.00598,775966
8.01075,799379
8.01552,823524
8.02028,830348
8.02503,839049
8.0298,836689
8.03457,810484
8.03932,838315
8.04408,847860
8.04885,822479
8.05362,823495
8.05837,825469
8.06313,906584
8.0679,977169
8.07265,1103823
8.07742,1247203
8.08218,1314205
8.08695,1297149
8.0917,1188310
8.09647,1054142
8.10123,936731
8.10598,857122
8.11075,859842
8.11552,881075
8.12028,832485
8.12503,848143
8.1298,857333
8.13457,870280
8.13933,806273
8.14408,830390
8.14885,782166
8.15362,769789
8.15837,776529
8.16313,784251
8.1679,749727
8.17267,754799
8.17742,744218
8.18218,784280
8.18695,713320
8.1917,752748
8.19647,769134
8.20123,764999
8.206,753000
8.21075,790731
8.21552,760836
8.22028,791157
8.22503,790275
8.2298,775456
8.23457,761609
8.23933,693599
8.24408,743639
8.24885,714989
8.25362,733391
8.25837,734896
8.26313,752571
8.2679,737586
8.27267,713220
8.27742,722862
8.28218,725540
8.28695,711914
8.29172,716090
8.29647,725608
8.30123,732969
8.306,749771
8.31075,713676
8.31552,900234
8.32028,749912
8.32505,717130
8.3298,728784
8.33457,704770
8.33933,743155
8.34408,735362
8.34885,737872
8.35362,765739
8.35838,743652
8.36313,749207
8.3679,732402
8.37267,731977
8.37742,709818
8.38218,754304
8.38695,714659
8.39172,691675
8.39647,736322
8.40123,727062
8.406,683015
8.41075,692566
8.41552,714698
8.42028,669574
8.42505,709093
8.4298,710154
8.43457,732646
8.43933,704996
8.44408,667721
8.44885,721294
8.45362,696525
8.45838,703320
8.46313,713478
8.4679,653302
8.47267,669759
8.47743,700402
8.48218,658507
8.48695,683067
8.49172,722871
8.49647,693988
8.50123,714864
8.506,715432
8.51077,735666
8.51552,716158
8.52028,693630
8.52505,671094
8.5298,689612
8.53457,698161
8.53933,726344
8.5441,694242
8.54885,669057
8.55362,717650
8.55838,677978
8.56313,659656
8.5679,671617
8.57267,670254
8.57743,726548
8.58218,703565
8.58695,693859
8.59172,691173
8.59647,688793
8.60123,681614
8.606,657208
8.61077,662668
8.61552,671293
8.62028,683296
8.62505,704836
8.6298,692070
8.63457,703804
8.63933,669980
8.6441,717399
8.64885,687075
8.65362,696933
8.65838,670961
8.66315,656075
8.6679,674019
8.67267,665983
8.67743,664544
8.68218,672488
8.68695,653634
8.69172,686147
8.69648,675878
8.70123,686807
8.706,729930
8.71077,731910
8.71552,677369
8.72028,692013
8.72505,662414
8.72982,676452
8.73457,663877
8.73933,631187
8.7441,661614
8.74885,632249
8.75362,662630
8.75838,669112
8.76315,645441
8.7679,607759
8.77267,621127
8.77743,637104
8.78218,638184
8.78695,635718
8.79172,635814
8.79648,678346
8.80123,637685
8.806,612115
8.81077,621832
8.81553,631249
8.82028,622602
8.82505,614846
8.82982,647998
8.83457,653067
8.83933,659699
8.8441,622804
8.84887,637107
8.85362,631366
8.85838,655780
8.86315,620611
8.8679,662730
8.87267,665947
8.87743,651739
8.8822,657374
8.88695,635343
8.89172,669131
8.89648,655814
8.90123,641338
8.906,617849
8.91077,617757
8.91553,620049
8.92028,644537
8.92505,661486
8.92982,670095
8.93457,616636
8.93933,628144
8.9441,624270
8.94887,604748
8.95362,632925
8.95838,634814
8.96315,620621
8.9679,647222
8.97267,642798
8.97743,636325
8.9822,643839
8.98695,640383
8.99172,645016
8.99648,653523
9.00125,680427
9.006,715750
9.01077,715158
9.01553,733333
9.02028,747612
9.02505,760436
9.02982,706183
9.03458,717386
9.03933,683301
9.0441,686103
9.04887,685390
9.05362,635225
9.05838,617102
9.06315,643269
9.06792,604232
9.07267,620474
9.07743,626919
9.0822,649526
9.08695,586288
9.09172,593500
9.09648,590097
9.10125,604888
9.106,593089
9.11077,630352
9.11553,630607
9.12028,594208
9.12505,652948
9.12982,629189
9.13458,619440
9.13933,675324
9.1441,669410
9.14887,677344
9.15363,707885
9.15838,749231
9.16315,714010
9.16792,696094
9.17267,690150
9.17743,696320
9.1822,658885
9.18697,649778
9.19172,626756
9.19648,620518
9.20125,612429
9.206,630065
9.21077,595725
9.21553,585064
9.2203,603710
9.22505,594385
9.22982,606425
9.23458,589566
9.23933,588415
9.2441,577948
9.24887,571826
9.25363,616414
9.25838,584251
9.26315,602673
9.26792,597024
9.27267,598163
9.27743,649143
9.2822,607082
9.28697,615506
9.29172,606282
9.29648,601101
9.30125,580777
9.306,569018
9.31077,606408
9.31553,610727
9.3203,575242
9.32505,579872
9.32982,578905
9.33458,585344
9.33935,621462
9.3441,610980
9.34887,630389
9.35363,612644
9.35838,643179
9.36315,632879
9.36792,619798
9.37268,651899
9.37743,623775
9.3822,604950
9.38697,629525
9.39172,626579
9.39648,631925
9.40125,634388
9.40602,643910
9.41077,613470
9.41553,626793
9.4203,601771
9.42505,636917
9.42982,595557
9.43458,580683
9.43935,586475
9.4441,562066
9.44887,569074
9.45363,566624
9.45838,594044
9.46315,597109
9.46792,599779
9.47268,596692
9.47743,574580
9.4822,565922
9.48697,565802
9.49173,546961
9.49648,567476
9.50125,547849
9.50602,587216
9.51077,582093
9.51553,553648
9.5203,560319
9.52507,576323
9.52982,567391
9.53458,586961
9.53935,529492
9.5441,568716
9.54887,571690
9.55363,538759
9.5584,558805
9.56315,556591
9.56792,584629
9.57268,566059
9.57743,603948
9.5822,618626
9.58697,582083
9.59173,579144
9.59648,605094
9.60125,605717
9.60602,580954
9.61077,602988
9.61553,610495
9.6203,610163
9.62507,582673
9.62982,613909
9.63458,593524
9.63935,608662
9.6441,626379
9.64887,635768
9.65363,608693
9.6584,643690
9.66315,601119
9.66792,608707
9.67268,585308
9.67745,567461
9.6822,580230
9.68697,589781
9.69173,574493
9.69648,536514
9.70125,572624
9.70602,571113
9.71078,525808
9.71553,572721
9.7203,537352
9.72507,547749
9.72982,550294
9.73458,560587
9.73935,555251
9.74412,563642
9.74887,573249
9.75363,565857
9.7584,569395
9.76315,616168
9.76792,594249
9.77268,570300
9.77745,631023
9.7822,610513
9.78697,578474
9.79173,589641
9.79648,556988
9.80125,571410
9.80602,572333
9.81078,533926
9.81553,556557
9.8203,555971
9.82507,547100
9.82982,568695
9.83458,583240
9.83935,528918
9.84412,581117
9.84887,572659
9.85363,558348
9.8584,538523
9.86317,537712
9.86792,556173
9.87268,562350
9.87745,573864
9.8822,549686
9.88697,571135
9.89173,579406
9.8965,568769
9.90125,550809
9.90602,566029
9.91078,571807
9.91553,505077
9.9203,555528
9.92507,564273
9.92983,532062
9.93458,596592
9.93935,609235
9.94412,714041
9.94887,735562
9.95363,816197
9.9584,891567
9.96317,919176
9.96792,918223
9.97268,893708
9.97745,857917
9.9822,885705
9.98697,864348
9.99173,892093
9.9965,890742
10.0013,861337
10.006,868386
10.0108,807210
10.0156,740775
10.0203,713236
10.0251,625270
10.0298,636432
10.0346,644963
10.0394,615622
10.0441,622826
10.0489,598449
10.0536,641899
10.0584,591973
10.0632,592679
10.0679,595138
10.0727,575235
10.0775,594926
10.0822,608009
10.087,549477
10.0917,615154
10.0965,609888
10.1013,597144
10.106,609712
10.1108,593789
10.1156,598599
10.1203,598072
10.1251,613859
10.1298,648857
10.1346,619915
10.1394,628189
10.1441,611058
10.1489,652383
10.1536,627277
10.1584,607235
10.1632,606177
10.1679,602963
10.1727,571236
10.1775,605934
10.1822,549857
10.187,595649
10.1917,585897
10.1965,609332
10.2013,612366
10.206,630996
10.2108,679709
10.2156,632407
10.2203,715516
10.2251,671647
10.2298,615825
10.2346,604856
10.2394,611257
10.2441,571491
10.2489,591544
10.2536,599446
10.2584,617130
10.2632,607120
10.2679,587367
10.2727,614579
10.2775,577482
10.2822,577353
10.287,582745
10.2917,564531
10.2965,552800
10.3013,578185
10.306,594621
10.3108,564077
10.3156,577461
10.3203,545251
10.3251,575783
10.3298,554781
10.3346,547810
10.3394,564769
10.3441,541113
10.3489,572264
10.3537,570400
10.3584,584055
10.3632,573431
10.3679,594797
10.3727,581335
10.3775,608349
10.3822,581488
10.387,578058
10.3917,592729
10.3965,574632
10.4013,566638
10.406,576451
10.4108,558045
10.4156,557168
10.4203,572069
10.4251,586760
10.4298,611128
10.4346,614459
10.4394,616341
10.4441,552498
10.4489,594928
10.4537,611009
10.4584,554979
10.4632,552892
10.4679,563113
10.4727,555172
10.4775,558960
10.4822,567729
10.487,575825
10.4917,622978
10.4965,627779
10.5013,679826
10.506,734903
10.5108,761212
10.5156,806584
10.5203,763242
10.5251,777858
10.5298,706016
10.5346,627480
10.5394,614260
10.5441,602258
10.5489,565381
10.5537,591822
10.5584,559082
10.5632,591291
10.5679,585470
10.5727,626602
10.5775,604018
10.5822,601593
10.587,567587
10.5917,593530
10.5965,649361
10.6013,626342
10.606,616376
10.6108,615201
10.6156,592359
10.6203,594456
10.6251,594429
10.6298,602709
10.6346,567744
10.6394,581482
10.6441,581037
10.6489,552878
10.6537,547348
10.6584,557122
10.6632,539182
10.6679,559138
10.6727,577627
10.6775,580466
10.6822,557748
10.687,597866
10.6917,563886
10.6965,595723
10.7013,634443
10.706,599807
10.7108,658310
10.7156,626430
10.7203,612944
10.7251,609181
10.7298,602292
10.7346,614389
10.7394,599123
10.7441,627699
10.7489,673277
10.7537,762193
10.7584,1040082
10.7632,1529276
10.7679,2116565
10.7727,2702830
10.7775,2899230
10.7822,2847373
10.787,2577610
10.7918,2014333
10.7965,1506343
10.8013,1154226
10.806,975087
10.8108,855486
10.8156,835887
10.8203,793810
10.8251,780235
10.8298,844953
10.8346,835981
10.8394,983737
10.8441,1017020
10.8489,1118706
10.8537,1138708
10.8584,1124237
10.8632,1011149
10.8679,976370
10.8727,866238
10.8775,859158
10.8822,840710
10.887,875460
10.8918,865662
10.8965,841707
10.9013,869376
10.906,796569
10.9108,756581
10.9156,750433
10.9203,728172
10.9251,783415
10.9298,839630
10.9346,870799
10.9394,956752
10.9441,1044117
10.9489,1066112
10.9537,1200897
10.9584,1358782
10.9632,1576313
10.9679,1819311
10.9727,1994812
10.9775,1891952
10.9822,1736015
10.987,1460672
10.9918,1213285
10.9965,1033138
11.0013,991535
11.006,888627
11.0108,870532
11.0156,845745
11.0203,804511
11.0251,830255
11.0298,823144
11.0346,840266
11.0394,830009
11.0441,832641
11.0489,873689
11.0537,851876
11.0584,804810
11.0632,814089
11.0679,783697
11.0727,754354
11.0775,776908
11.0822,740184
11.087,773710
11.0918,806482
11.0965,926449
11.1013,1111596
11.106,1388432
11.1108,1492742
11.1156,1528651
11.1203,1431261
11.1251,1284504
11.1299,1116584
11.1346,935842
11.1394,877706
11.1441,853913
11.1489,858519
11.1537,806572
11.1584,778122
11.1632,750680
11.1679,756952
11.1727,731675
11.1775,743005
11.1822,701434
11.187,675614
11.1918,733996
11.1965,729698
11.2013,707604
11.206,748304
11.2108,662922
11.2156,699550
11.2203,712269
11.2251,695085
11.2299,691004
11.2346,724030
11.2394,701923
11.2441,734354
11.2489,726884
11.2537,703586
11.2584,723278
11.2632,762149
11.2679,785131
11.2727,783982
11.2775,811871
11.2822,793632
11.287,743790
11.2918,738402
11.2965,709246
11.3013,679414
11.306,722959
11.3108,696194
11.3156,716231
11.3203,689348
11.3251,711418
11.3299,699312
11.3346,692252
11.3394,697543
11.3441,699202
11.3489,682819
11.3537,634006
11.3584,657899
11.3632,667763
11.3679,677432
11.3727,647571
11.3775,701875
11.3822,705491
11.387,651396
11.3918,674147
11.3965,654355
11.4013,646016
11.406,676255
11.4108,650171
11.4156,708093
11.4203,682839
11.4251,707601
11.4299,694353
11.4346,735233
11.4394,700425
11.4441,730717
11.4489,766897
11.4537,718065
11.4584,708912
11.4632,741930
11.468,734121
11.4727,707662
11.4775,752936
11.4822,814214
11.487,931915
11.4918,1057504
11.4965,1107830
11.5013,1064103
11.506,966116
11.5108,866414
11.5156,749892
11.5203,738290
11.5251,680147
11.5299,657076
11.5346,690055
11.5394,670402
11.5441,675150
11.5489,711672
11.5537,678545
11.5584,699446
11.5632,689974
11.568,677974
11.5727,682394
11.5775,706226
11.5822,691781
11.587,878687
11.5918,1057464
11.5965,1296293
11.6013,1531472
11.606,1652204
11.6108,1738426
11.6156,1729953
11.6203,1649603
11.6251,1519751
11.6299,1224513
11.6346,1026753
11.6394,890738
11.6441,841018
11.6489,833399
11.6537,916378
11.6584,1098322
11.6632,1539366
11.668,2122566
11.6727,2618744
11.6775,2865718
11.6822,2502025
11.687,1980646
11.6918,1525577
11.6965,1169276
11.7013,1024656
11.706,942434
11.7108,983852
11.7156,891486
11.7203,952081
11.7251,915292
11.7299,920905
11.7346,840746
11.7394,801299
11.7441,828741
11.7489,849953
11.7537,825280
11.7584,831046
11.7632,864826
11.768,823572
11.7727,798086
11.7775,772011
11.7822,785091
11.787,747402
11.7918,734940
11.7965,747243
11.8013,742116
11.8061,743778
11.8108,691708
11.8156,713945
11.8203,738771
11.8251,779881
11.8299,761525
11.8346,770092
11.8394,769199
11.8441,767152
11.8489,756803
11.8537,781551
11.8584,762777
11.8632,751206
11.868,771837
11.8727,779470
11.8775,764145
11.8822,837221
11.887,785409
11.8918,760519
11.8965,749130
11.9013,739732
11.9061,755204
11.9108,801617
11.9156,808298
11.9203,757842
11.9251,763892
11.9299,779141
11.9346,774619
11.9394,759910
11.9441,765025
11.9489,779255
11.9537,787240
11.9584,789829
11.9632,782332
11.968,830054
11.9727,795855
11.9775,732246
11.9822,729530
11.987,766869
11.9918,751636
11.9965,761826
12.0013,787159
12.0061,774595
12.0108,750011
12.0156,777598
12.0203,805297
12.0251,802918
12.0299,774769
12.0346,797196
12.0394,780269
12.0441,752737
12.0489,829098
12.0537,798600
12.0584,774322
12.0632,788269
12.068,769993
12.0727,838291
12.0775,816541
12.0822,797581
12.087,807624
12.0918,774351
12.0965,805521
12.1013,792878
12.1061,828999
12.1108,881174
12.1156,980821
12.1203,1055335
12.1251,1035703
12.1299,1067152
12.1346,993174
12.1394,894914
12.1442,818453
12.1489,803225
12.1537,805990
12.1584,794242
12.1632,806899
12.168,782762
12.1727,782335
12.1775,773174
12.1822,842403
12.187,784608
12.1918,806577
12.1965,791954
12.2013,801409
12.2061,776075
12.2108,769161
12.2156,782912
12.2203,789502
12.2251,826290
12.2299,844817
12.2346,785929
12.2394,748807
12.2442,770455
12.2489,734827
12.2537,771220
12.2584,715532
12.2632,744633
12.268,726946
12.2727,776719
12.2775,765262
12.2822,692626
12.287,737143
12.2918,761150
12.2965,727683
12.3013,693001
12.3061,696892
12.3108,746991
12.3156,788864
12.3203,783814
12.3251,793174
12.3299,782339
12.3346,756219
12.3394,773255
12.3442,768993
12.3489,747408
12.3537,763104
12.3584,773617
12.3632,742221
12.368,755138
12.3727,761046
12.3775,804570
12.3822,806464
12.387,797272
12.3918,842948
12.3965,824316
12.4013,853562
12.4061,885162
12.4108,901124
12.4156,980450
12.4203,964732
12.4251,974641
12.4299,889740
12.4346,864944
12.4394,823395
12.4442,810976
12.4489,846639
12.4537,818855
12.4584,812174
12.4632,830020
12.468,877893
12.4727,917500
12.4775,929977
12.4823,944551
12.487,1024091
12.4918,1112965
12.4965,1059720
12.5013,987515
12.5061,940409
12.5108,897812
12.5156,867544
12.5203,827242
12.5251,799340
12.5299,835161
12.5346,881575
12.5394,830407
12.5442,872673
12.5489,900853
12.5537,893074
12.5584,886277
12.5632,830477
12.568,825246
12.5727,797086
12.5775,804315
12.5823,794549
12.587,813751
12.5918,780340
12.5965,809848
12.6013,808883
12.6061,802788
12.6108,761362
12.6156,825127
12.6203,813435
12.6251,846904
12.6299,848345
12.6346,879069
12.6394,815510
12.6442,815014
12.6489,818318
12.6537,776991
12.6584,772303
12.6632,797539
12.668,797886
12.6727,841757
12.6775,921786
12.6823,1053080
12.687,1177065
12.6918,1247586
12.6965,1217954
12.7013,1114092
12.7061,990343
12.7108,928516
12.7156,888958
12.7203,849820
12.7251,771514
12.7299,791963
12.7346,816856
12.7394,806865
12.7442,817169
12.7489,768976
12.7537,793779
12.7584,800169
12.7632,813596
12.768,837067
12.7727,826205
12.7775,840617
12.7823,857665
12.787,862354
12.7918,885182
12.7965,812674
12.8013,861976
12.8061,847616
12.8108,865509
12.8156,827652
12.8204,846992
12.8251,862398
12.8299,829161
12.8346,816031
12.8394,848291
12.8442,846594
12.8489,790121
12.8537,810926
12.8584,784216
12.8632,772462
12.868,812972
12.8727,776062
12.8775,768045
12.8823,786493
12.887,772708
12.8918,776679
12.8965,799897
12.9013,815163
12.9061,798597
12.9108,834054
12.9156,801983
12.9204,795855
12.9251,805813
12.9299,806651
12.9346,793889
12.9394,830678
12.9442,748154
12.9489,804296
12.9537,805649
12.9584,809624
12.9632,804131
12.968,806830
12.9727,813434
12.9775,797584
12.9823,825008
12.987,872427
12.9918,912293
12.9965,1027280
13.0013,1119172
13.0061,1216589
13.0108,1176185
13.0156,1095508
13.0204,1001547
13.0251,947012
13.0299,854114
13.0346,874720
13.0394,824711
13.0442,809736
13.0489,793986
13.0537,790266
13.0584,841122
13.0632,850350
13.068,837771
13.0727,806015
13.0775,829793
13.0823,836215
13.087,862782
13.0918,840068
13.0965,816595
13.1013,781737
13.1061,795938
13.1108,809125
13.1156,811276
13.1204,837698
13.1251,841030
13.1299,793144
13.1346,862814
13.1394,859723
13.1442,894324
13.1489,1023833
13.1537,1158734
13.1585,1407264
13.1632,1694752
13.168,1712326
13.1727,1578581
13.1775,1407976
13.1823,1243082
13.187,1061349
13.1918,1137649
13.1965,1329109
13.2013,1589675
13.2061,1724528
13.2108,1658406
13.2156,1580159
13.2204,1310923
13.2251,1090794
13.2299,982285
13.2346,919826
13.2394,894028
13.2442,809502
13.2489,838641
13.2537,861681
13.2585,834315
13.2632,859443
13.268,808327
13.2727,844638
13.2775,840673
13.2823,830799
13.287,816849
13.2918,810835
13.2965,831976
13.3013,831634
13.3061,816971
13.3108,847499
13.3156,844002
13.3204,806158
13.3251,807138
13.3299,843717
13.3346,854264
13.3394,839539
13.3442,836324
13.3489,820155
13.3537,832548
13.3585,821771
13.3632,865086
13.368,859202
13.3727,883601
13.3775,899222
13.3823,896987
13.387,944483
13.3918,932027
13.3965,885609
13.4013,896211
13.4061,1002089
13.4108,1131014
13.4156,1496345
13.4204,1998706
13.4251,2496488
13.4299,2764079
13.4346,2754722
13.4394,2331457
13.4442,1939464
13.4489,1523953
13.4537,1307265
13.4585,1203328
13.4632,1240809
13.468,1262051
13.4727,1214142
13.4775,1182137
13.4823,1105219
13.487,994687
13.4918,986718
13.4966,937776
13.5013,902856
13.5061,910493
13.5108,874839
13.5156,884869
13.5204,858761
13.5251,840596
13.5299,862805
13.5346,848152
13.5394,825044
13.5442,850998
13.5489,853184
13.5537,816200
13.5585,821883
13.5632,850722
13.568,816979
13.5727,852126
13.5775,807840
13.5823,808232
13.587,798428
13.5918,833716
13.5966,823154
13.6013,861111
13.6061,810566
13.6108,841731
13.6156,844054
13.6204,849614
13.6251,831345
13.6299,845680
13.6346,836154
13.6394,859741
13.6442,903792
13.6489,913812
13.6537,933252
13.6585,856553
13.6632,864051
13.668,850581
13.6727,848819
13.6775,819721
13.6823,887805
13.687,837042
13.6918,856113
13.6966,837094
13.7013,838137
13.7061,840950
13.7108,878951
13.7156,848077
13.7204,822268
13.7251,873471
13.7299,818713
13.7346,847503
13.7394,917942
13.7442,875452
13.7489,956023
13.7537,1105192
13.7585,1165363
13.7632,1227392
13.768,1225468
13.7727,1100236
13.7775,1004580
13.7823,931506
13.787,894097
13.7918,852591
13.7966,838197
13.8013,827238
13.8061,840221
13.8108,820713
13.8156,871016
13.8204,852224
13.8251,821484
13.8299,866579
13.8347,793637
13.8394,779548
13.8442,823528
13.8489,825105
13.8537,851742
13.8585,854143
13.8632,905670
13.868,996533
13.8727,1056704
13.8775,1110531
13.8823,1216871
13.887,1375753
13.8918,1601274
13.8966,1907074
13.9013,2058682
13.9061,2024149
13.9108,1757902
13.9156,1489523
13.9204,1228375
13.9251,1123286
13.9299,1033597
13.9347,995904
13.9394,973044
13.9442,963563
13.9489,965636
13.9537,1075822
13.9585,1050599
13.9632,1098111
13.968,1227786
13.9727,1286298
13.9775,1288567
13.9823,1237141
13.987,1114891
13.9918,981553
13.9966,946990
14.0013,923199
14.0061,909731
14.0108,847628
14.0156,908289
14.0204,922591
14.0251,917970
14.0299,930407
14.0347,909699
14.0394,903819
14.0442,892976
14.0489,870018
14.0537,875056
14.0585,868787
14.0632,873996
14.068,867355
14.0727,925471
14.0775,892475
14.0823,876870
14.087,866257
14.0918,868377
14.0966,855927
14.1013,872783
14.1061,877537
14.1108,887869
14.1156,892727
14.1204,913159
14.1251,926174
14.1299,871919
14.1347,913286
14.1394,955762
14.1442,949311
14.1489,985221
14.1537,995387
14.1585,999483
14.1632,1024931
14.168,1055991
14.1728,1066555
14.1775,1076301
14.1823,1033967
14.187,997086
14.1918,1027134
14.1966,1049210
14.2013,1171493
14.2061,1166563
14.2108,1228363
14.2156,1145290
14.2204,1040907
14.2251,1096537
14.2299,1055440
14.2347,1103278
14.2394,1150965
14.2442,1293797
14.2489,1265501
14.2537,1331593
14.2585,1283717
14.2632,1179285
14.268,1061712
14.2728,1012635
14.2775,976810
14.2823,966212
14.287,911880
14.2918,891346
14.2966,903845
14.3013,871718
14.3061,885290
14.3108,903740
14.3156,938671
14.3204,970730
14.3251,938592
14.3299,991649
14.3347,997029
14.3394,945357
14.3442,906027
14.3489,968059
14.3537,905332
14.3585,927338
14.3632,894254
14.368,929029
14.3728,913532
14.3775,957391
14.3823,888825
14.387,974691
14.3918,933133
14.3966,912974
14.4013,890635
14.4061,912856
14.4108,940306
14.4156,904849
14.4204,919427
14.4251,920960
14.4299,958904
14.4347,942579
14.4394,958006
14.4442,1040029
14.4489,1023428
14.4537,974236
14.4585,1017207
14.4632,985311
14.468,975731
14.4728,969985
14.4775,1028505
14.4823,1115174
14.487,1190074
14.4918,1246944
14.4966,1329930
14.5013,1274080
14.5061,1160228
14.5109,1069022
14.5156,1045454
14.5204,1025518
14.5251,999257
14.5299,1005798
14.5347,1000697
14.5394,1021800
14.5442,1018838
14.5489,968165
14.5537,1007332
14.5585,995609
14.5632,985403
14.568,1010233
14.5728,1017358
14.5775,945803
14.5823,997186
14.587,971245
14.5918,957317
14.5966,969346
14.6013,947061
14.6061,949757
14.6109,962265
14.6156,942097
14.6204,948124
14.6251,983062
14.6299,961464
14.6347,966904
14.6394,1013897
14.6442,976105
14.6489,989887
14.6537,929703
14.6585,950647
14.6632,970879
14.668,1019602
14.6728,958906
14.6775,983385
14.6823,965425
14.687,1011383
14.6918,1006998
14.6966,941824
14.7013,937094
14.7061,1005828
14.7109,974096
14.7156,973919
14.7204,963327
14.7251,928736
14.7299,981690
14.7347,962891
14.7394,1026866
14.7442,1128955
14.7489,1212635
14.7537,1311517
14.7585,1327265
14.7632,1370958
14.768,1304803
14.7728,1182670
14.7775,1083762
14.7823,1022739
14.787,959642
14.7918,977629
14.7966,976596
14.8013,966620
14.8061,971864
14.8109,977834
14.8156,984292
14.8204,1005249
14.8251,978227
14.8299,978497
14.8347,951273
14.8394,1005396
14.8442,952481
14.849,942690
14.8537,950708
14.8585,996627
14.8632,984855
14.868,934343
14.8728,941741
14.8775,946523
14.8823,983403
14.887,990892
14.8918,985542
14.8966,961659
14.9013,1010862
14.9061,1023316
14.9109,997821
14.9156,957926
14.9204,980708
14.9251,970566
14.9299,988814
14.9347,1008785
14.9394,1004949
14.9442,1008973
14.949,1032532
14.9537,969267
14.9585,1164612
14.9632,977216
14.968,1017662
14.9728,980076
14.9775,1005159
14.9823,962612
14.987,1036920
14.9918,988183
14.9966,1002602
15.0013,1015658
15.0061,995304
15.0109,970375
15.0156,971666
15.0204,1028158
15.0251,967187
15.0299,1006694
15.0347,991546
15.0394,1052479
15.0442,993521
15.049,996134
15.0537,1014520
15.0585,1080740
15.0632,1019880
15.068,1004860
15.0728,1047745
15.0775,981961
15.0823,1022729
15.087,1025692
15.0918,1045186
15.0966,1055239
15.1013,972576
15.1061,1025784
15.1109,1021116
15.1156,996004
15.1204,1012981
15.1251,1040882
15.1299,980092
15.1347,1055374
15.1394,965906
15.1442,1033726
15.149,1032732
15.1537,1001465
15.1585,1019537
15.1632,984081
15.168,1010674
15.1728,1057364
15.1775,1024498
15.1823,1121609
15.1871,1066788
15.1918,1092506
15.1966,1128348
15.2013,1192266
15.2061,1140684
15.2109,1180415
15.2156,1118577
15.2204,1084784
15.2251,1094310
15.2299,1032602
15.2347,1010199
15.2394,1063472
15.2442,1018886
15.249,1083161
15.2537,1046669
15.2585,1081003
15.2632,1044634
15.268,1070277
15.2728,1087863
15.2775,1075397
15.2823,1071299
15.2871,1061896
15.2918,1055360
15.2966,1035052
15.3013,1092844
15.3061,1075834
15.3109,1104859
15.3156,1095269
15.3204,1085958
15.3251,1024906
15.3299,1006055
15.3347,1068033
15.3394,1077813
15.3442,1093308
15.349,1047564
15.3537,1064364
15.3585,1050643
15.3632,1061686
15.368,1067180
15.3728,1057658
15.3775,1060277
15.3823,1060024
15.3871,1112120
15.3918,1093445
15.3966,1083352
15.4013,1094696
15.4061,1119394
15.4109,1093634
15.4156,1125589
15.4204,1120346
15.4251,1109030
15.4299,1125276
15.4347,1133518
15.4394,1117714
15.4442,1130615
15.449,1079517
15.4537,1134818
15.4585,1089548
15.4632,1115934
15.468,1180214
15.4728,1250346
15.4775,1228559
15.4823,1185671
15.4871,1176503
15.4918,1136997
15.4966,1133754
15.5013,1124239
15.5061,1140354
15.5109,1149089
15.5156,1136154
15.5204,1138473
15.5252,1192530
15.5299,1260265
15.5347,1356231
15.5394,1473064
15.5442,1448543
15.549,1403360
15.5537,1397004
15.5585,1337676
15.5632,1255557
15.568,1178622
15.5728,1168070
15.5775,1138774
15.5823,1119940
15.5871,1172763
15.5918,1167170
15.5966,1122802
15.6013,1162255
15.6061,1150271
15.6109,1163994
15.6156,1167999
15.6204,1148738
15.6252,1184624
15.6299,1217358
15.6347,1171493
15.6394,1209649
15.6442,1149927
15.649,1149693
15.6537,1199105
15.6585,1170005
15.6632,1168210
15.668,1212572
15.6728,1265825
15.6775,1360668
15.6823,1484499
15.6871,1624071
15.6918,1635112
15.6966,1495743
15.7013,1414081
15.7061,1380043
15.7109,1257071
15.7156,1196937
15.7204,1213358
15.7252,1276872
15.7299,1225012
15.7347,1248286
15.7394,1346163
15.7442,1343879
15.749,1292243
15.7537,1426241
15.7585,1457810
15.7632,1541467
15.768,1418813
15.7728,1332558
15.7775,1261046
15.7823,1298303
15.7871,1312336
15.7918,1322864
15.7966,1374744
15.8013,1396764
15.8061,1367394
15.8109,1349825
15.8156,1349260
15.8204,1327173
15.8252,1342161
15.8299,1295523
15.8347,1357641
15.8394,1302034
15.8442,1364327
15.849,1316358
15.8537,1378095
15.8585,1396612
15.8633,1335331
15.868,1381497
15.8728,1337769
15.8775,1333113
15.8823,1399186
15.8871,1427248
15.8918,1495443
15.8966,1527654
15.9013,1471601
15.9061,1426587
15.9109,1394080
15.9156,1370226
15.9204,1406120
15.9252,1374513
15.9299,1330208
15.9347,1412604
15.9394,1384650
15.9442,1365805
15.949,1416657
15.9537,1408617
15.9585,1402541
15.9633,1481531
15.968,1405349
15.9728,1418661
15.9775,1386709
15.9823,1422802
15.9871,1410479
15.9918,1399222
15.9966,1465641
16.0013,1437182
16.0061,1471124
16.0109,1494268
16.0156,1503654
16.0204,1704691
16.0252,1711209
16.0299,1877089
16.0347,1798836
16.0394,1720694
16.0442,1617318
16.049,1548737
16.0537,1492175
16.0585,1507312
16.0633,1509744
16.068,1492289
16.0728,1506530
16.0775,1528097
16.0823,1507495
16.0871,1491891
16.0918,1561642
16.0966,1509824
16.1013,1517892
16.1061,1479427
16.1109,1544825
16.1156,1585089
16.1204,1593386
16.1252,1578575
16.1299,1582123
16.1347,1546851
16.1394,1530574
16.1442,1519969
16.149,1583846
16.1537,1650447
16.1585,1565319
16.1633,1561210
16.168,1596402
16.1728,1557652
16.1775,1609503
16.1823,1597785
16.187,1642966
16.1918,1607569
16.1966,1560744
16.2013,1580854
16.2061,1670234
16.2109,1576803
16.2156,1684228
16.2204,1638720
16.2251,1687970
16.2299,1674943
16.2347,1674642
16.2394,1690887
16.2442,1648197
16.249,1658995
16.2537,1684599
16.2585,1683545
16.2632,1710864
16.268,1699044
16.2728,1659631
16.2775,1680002
16.2823,1735214
16.2871,1716826
16.2918,1733513
16.2966,1713557
16.3013,1704537
16.3061,1686858
16.3109,1698123
16.3156,1756703
16.3204,1752797
16.3252,1789620
16.3299,1834529
16.3347,1762243
16.3394,1804163
16.3442,1794714
16.349,1768465
16.3537,1850808
16.3585,1831383
16.3633,1911492
16.368,2086352
16.3728,2196552
16.3775,2127975
16.3823,2078663
16.3871,1970493
16.3918,1946953
16.3966,1927406
16.4014,2028064
16.4061,2368647
16.4109,2774363
16.4156,3090256
16.4204,2891015
16.4251,2472935
16.4299,2110214
16.4347,1973418
16.4394,1959833
16.4442,1999689
16.449,1955890
16.4537,1916341
16.4585,1921581
16.4632,1921593
16.468,1987108
16.4728,1982893
16.4775,2029573
16.4823,2014536
16.4871,1976396
16.4918,2003307
16.4966,1989987
16.5013,1999468
16.5061,2020933
16.5109,2027469
16.5156,1990827
16.5204,2051494
16.5252,2035161
16.5299,2105802
16.5347,2059342
16.5394,2118005
16.5442,2002242
16.549,2066917
16.5537,2110904
16.5585,2138365
16.5633,2173515
16.568,2152751
16.5728,2112213
16.5775,2047338
16.5823,2045898
16.5871,2157666
16.5918,2187457
16.5966,2162572
16.6014,2127171
16.6061,2098816
16.6109,2167036
16.6156,2276322
16.6204,2324599
16.6252,2344880
16.6299,2377661
16.6347,2283466
16.6395,2259331
16.6442,2248253
16.649,2271563
16.6537,2283553
16.6585,2242176
16.6633,2305605
16.668,2319932
16.6728,2255666
16.6775,2259554
16.6823,2298447
16.6871,2218160
16.6918,2225862
16.6966,2267035
16.7014,2276368
16.7061,2268855
16.7109,2279007
16.7156,2277665
16.7204,2238448
16.7252,2311254
16.7299,2316297
16.7347,2361396
16.7395,2347942
16.7442,2333604
16.749,2331186
16.7537,2366821
16.7585,2317048
16.7632,2306478
16.768,2355635
16.7728,2246954
16.7775,2382166
16.7823,2355564
16.7871,2327395
16.7918,2359664
16.7966,2446975
16.8013,2380918
16.8061,2546449
16.8109,2438332
16.8156,2452984
16.8204,2421676
16.8252,2338649
16.8299,2387035
16.8347,2495859
16.8394,2493803
16.8442,2440269
16.849,2408187
16.8537,2513759
16.8585,2719212
16.8633,2769875
16.868,2783359
16.8728,2618359
16.8775,2539876
16.8823,2415978
16.8871,2444353
16.8918,2433074
16.8966,2496376
16.9014,2499426
16.9061,2531547
16.9109,2587126
16.9156,2701234
16.9204,2712624
16.9252,2840690
16.9299,2844935
16.9347,2816326
16.9395,2827736
16.9442,2811273
16.949,2857862
16.9537,2851509
16.9585,2955684
16.9632,2897891
16.968,2843015
16.9728,2858278
16.9776,2866153
16.9823,2829470
16.9871,2858192
16.9918,2810934
16.9966,2691558
17.0013,2632354
17.0061,2703198
17.0109,2910014
17.0156,3107192
17.0204,3109921
17.0252,2995496
17.0299,2767650
17.0347,2705600
17.0394,2593972
17.0442,2550434
17.049,2548352
17.0537,2589656
17.0585,2591293
17.0633,2556381
17.068,2549422
17.0728,2575044
17.0775,2609341
17.0823,2602862
17.0871,2551424
17.0918,2613739
17.0966,2663246
17.1014,2606452
17.1061,2583911
17.1109,2576505
17.1156,2577847
17.1204,2678696
17.1252,2718209
17.1299,3594261
17.1347,6044283
17.1395,10238364
17.1442,13702657
17.149,12394851
17.1537,8935613
17.1585,5732431
17.1633,3837037
17.168,3186875
17.1728,2836346
17.1776,2795579
17.1823,2776659
17.1871,2751284
17.1918,2801484
17.1966,2879202
17.2014,2820200
17.2061,2800821
17.2109,2727086
17.2156,2776600
17.2204,2763554
17.2252,2738007
17.2299,2758237
17.2347,2656832
17.2395,2721823
17.2442,2700427
17.249,2676558
17.2537,2718351
17.2585,2683110
17.2633,2624200
17.268,2770787
17.2728,2746170
17.2776,2706129
17.2823,2659529
17.2871,2671669
17.2918,2641728
17.2966,2869490
17.3013,3865811
17.3061,7463991
17.3109,14730994
17.3157,22135768
17.3204,22427034
17.3252,16297316
17.3299,9448576
17.3347,5391023
17.3394,3831244
17.3442,3315007
17.349,3106221
17.3537,3006682
17.3585,2934188
17.3633,2890809
17.368,2867351
17.3728,2804518
17.3775,2837017
17.3823,2854865
17.3871,2838249
17.3918,2830967
17.3966,2792933
17.4014,2907611
17.4061,2822206
17.4109,2822370
17.4156,2871223
17.4204,2729451
17.4252,2828909
17.4299,2795177
17.4347,2798181
17.4395,2805157
17.4442,2897173
17.449,2886591
17.4537,2844054
17.4585,2815871
17.4633,2832365
17.468,2897128
17.4728,2835002
17.4776,2849703
17.4823,2845797
17.4871,2860910
17.4918,2788551
17.4966,2830255
17.5014,2799986
17.5061,2832715
17.5109,2885533
17.5157,2825840
17.5204,2846782
17.5252,2854427
17.5299,2871451
17.5347,2943232
17.5395,2870766
17.5442,2877111
17.549,2955639
17.5537,2852872
17.5585,2882838
17.5633,2833507
17.568,2847165
17.5728,2966619
17.5776,2959921
17.5823,2895403
17.5871,2919641
17.5918,2913154
17.5966,3066255
17.6014,3233021
17.6061,3406761
17.6109,3480815
17.6157,3310310
17.6204,3137894
17.6252,3015269
17.6299,2992460
17.6347,2969197
17.6395,3071114
17.6442,3796426
17.649,6692004
17.6538,14738022
17.6585,28898306
17.6633,47309528
17.668,53892824
17.6728,44886312
17.6776,28008784
17.6823,15190739
17.6871,8367109
17.6918,5525624
17.6966,4516084
17.7014,3972005
17.7061,3759110
17.7109,3616005
17.7157,3455224
17.7204,3431803
17.7252,3346338
17.7299,3246570
17.7347,3203235
17.7395,3212026
17.7442,3200357
17.749,3084795
17.7538,3087169
17.7585,3117423
17.7633,3194492
17.768,3292592
17.7728,3440896
17.7776,3918884
17.7823,4856218
17.7871,5640535
17.7918,5813439
17.7966,5237522
17.8014,4409948
17.8061,3707759
17.8109,3325031
17.8157,3242048
17.8204,3132403
17.8252,3087387
17.8299,3050684
17.8347,3045927
17.8395,2966207
17.8442,2997342
17.849,3002665
17.8538,3088017
17.8585,2992028
17.8633,2979593
17.868,2986310
17.8728,3008010
17.8775,3027592
17.8823,2968524
17.8871,2983149
17.8918,2944631
17.8966,2978288
17.9014,3015846
17.9061,3038480
17.9109,3157698
17.9156,3330920
17.9204,3561246
17.9252,3588652
17.9299,3560192
17.9347,3334572
17.9395,3292986
17.9442,3117523
17.949,3194898
17.9537,3106066
17.9585,3127873
17.9633,3070507
17.968,3115642
17.9728,3105831
17.9776,3085381
17.9823,3103984
17.9871,3009524
17.9918,3022232
17.9966,2995099
18.0014,3039774
18.0061,3011998
18.0109,2973222
18.0157,3074471
18.0204,3013512
18.0252,3041556
18.0299,2979284
18.0347,3082518
18.0395,3045194
18.0442,2988876
18.049,3044541
18.0538,3001878
18.0585,2993650
18.0633,3054627
18.068,3070856
18.0728,3268118
18.0776,4227467
18.0823,7505306
18.0871,15929759
18.0919,32035776
18.0966,51487484
18.1014,59389524
18.1061,50448868
18.1109,33046110
18.1157,19455218
18.1204,11050569
18.1252,7088992
18.1299,5427583
18.1347,4673920
18.1395,4243310
18.1442,4308913
18.149,4581183
18.1538,5056989
18.1585,5732050
18.1633,5951056
18.168,5667020
18.1728,4802364
18.1776,4226954
18.1823,3842486
18.1871,3503866
18.1919,3383214
18.1966,3313004
18.2014,3276415
18.2061,3307421
18.2109,3253720
18.2157,3228025
18.2204,3222261
18.2252,3175330
18.2299,3195863
18.2347,3146109
18.2395,3149887
18.2442,3059812
18.249,3240248
18.2538,3137346
18.2585,3124511
18.2633,3207670
18.268,3509970
18.2728,4789403
18.2776,8630794
18.2823,17891134
18.2871,31832150
18.2919,44974968
18.2966,51268400
18.3014,46902996
18.3061,33491898
18.3109,20642536
18.3157,12341776
18.3204,7812016
18.3252,6008557
18.33,4922705
18.3347,4445198
18.3395,4203011
18.3442,4002352
18.349,3809353
18.3538,3743072
18.3585,3586213
18.3633,3618812
18.368,3473023
18.3728,3456235
18.3776,3349426
18.3823,3278197
18.3871,3260260
18.3919,3315604
18.3966,3256434
18.4014,3238933
18.4061,3321196
18.4109,3254609
18.4156,3272783
18.4204,3298816
18.4252,3217634
18.43,3273325
18.4347,3235042
18.4395,3214500
18.4442,3186240
18.449,3188348
18.4537,3192567
18.4585,3239298
18.4633,3225490
18.468,3183780
18.4728,3179933
18.4776,3128896
18.4823,3107284
18.4871,3187585
18.4918,3193632
18.4966,3150246
18.5014,3142573
18.5061,3184442
18.5109,3160262
18.5157,3160780
18.5204,3166732
18.5252,3119697
18.5299,3076578
18.5347,3121376
18.5395,3164975
18.5442,3141030
18.549,3085296
18.5538,3185814
18.5585,3126592
18.5633,3145270
18.568,3182874
18.5728,3112525
18.5776,3185155
18.5823,3090502
18.5871,2658984
18.5919,3052608
18.5966,3099333
18.6014,3214573
18.6061,3085162
18.6109,3119317
18.6157,3251689
18.6204,3295710
18.6252,3367271
18.63,3539187
18.6347,3564228
18.6395,3550727
18.6442,3472111
18.649,3397677
18.6538,3174788
18.6585,3113134
18.6633,3253487
18.6681,3280881
18.6728,3278906
18.6776,3535268
18.6823,4187475
18.6871,6208538
18.6919,10318135
18.6966,17091416
18.7014,24972568
18.7061,28493514
18.7109,27244872
18.7157,21789542
18.7204,14860167
18.7252,9758045
18.73,6688002
18.7347,4933364
18.7395,4160771
18.7442,3819497
18.749,3678755
18.7538,3556343
18.7585,3437719
18.7633,3437099
18.7681,3410684
18.7728,3371624
18.7776,3322592
18.7823,3311637
18.7871,3238891
18.7919,3290492
18.7966,3201653
18.8014,3178613
18.8061,3260794
18.8109,3164146
18.8157,3178904
18.8204,3283528
18.8252,3232024
18.83,3385281
18.8347,3509233
18.8395,3913561
18.8442,4395430
18.849,4702646
18.8538,4782485
18.8585,4576822
18.8633,4244505
18.8681,3886483
18.8728,3655766
18.8776,3401880
18.8823,3327146
18.8871,3304114
18.8919,3235572
18.8966,3252419
18.9014,3275227
18.9061,3192695
18.9109,3199924
18.9157,3230226
18.9204,3249052
18.9252,3169327
18.93,3258918
18.9347,3243003
18.9395,3068246
18.9442,3159410
18.949,3096690
18.9538,3232634
18.9585,3167638
18.9633,3127673
18.9681,3206833
18.9728,3122799
18.9776,3190977
18.9823,3119653
18.9871,3168918
18.9918,3150996
18.9966,3162452
19.0014,3153320
19.0062,3147553
19.0109,3146056
19.0157,3100485
19.0204,3222903
19.0252,3119919
19.0299,3173302
19.0347,3138540
19.0395,3114754
19.0442,3117417
19.049,3119563
19.0538,3090278
19.0585,3222956
19.0633,3114627
19.068,3149271
19.0728,3155550
19.0776,3238637
19.0823,3148199
19.0871,3230760
19.0919,3100742
19.0966,3148311
19.1014,3178995
19.1062,3207006
19.1109,3119975
19.1157,3163316
19.1204,3201353
19.1252,3094792
19.13,3166225
19.1347,3124555
19.1395,3147499
19.1442,3109190
19.149,3117766
19.1538,3101505
19.1585,3123657
19.1633,3131965
19.1681,3124175
19.1728,3081104
19.1776,3115604
19.1823,3052284
19.1871,3138200
19.1919,3182510
19.1966,3207778
19.2014,3290011
19.2062,3489047
19.2109,4051931
19.2157,5075691
19.2204,6862778
19.2252,9405130
19.23,11707098
19.2347,13486381
19.2395,12735988
19.2442,10433809
19.249,8012304
19.2538,6066685
19.2585,4714663
19.2633,3977467
19.2681,3600368
19.2728,3422124
19.2776,3425768
19.2823,3273813
19.2871,3278226
19.2919,3338499
19.2966,3412831
19.3014,3499182
19.3062,3586519
19.3109,3604156
19.3157,3738971
19.3204,3598880
19.3252,3495583
19.33,3441494
19.3347,3329882
19.3395,3258752
19.3443,3193275
19.349,3328204
19.3538,3185860
19.3585,3269252
19.3633,3190962
19.3681,3160369
19.3728,3108343
19.3776,3131866
19.3823,3190953
19.3871,3176646
19.3919,3158205
19.3966,3144157
19.4014,3117141
19.4062,3104902
19.4109,3110318
19.4157,3125558
19.4204,3158650
19.4252,3149427
19.43,3200238
19.4347,3120554
19.4395,3147116
19.4443,3184433
19.449,3417480
19.4538,3595501
19.4585,4212721
19.4633,5401816
19.4681,7132624
19.4728,9294626
19.4776,11141454
19.4823,12033187
19.4871,11555964
19.4919,9909003
19.4966,8042310
19.5014,6483647
19.5062,5045099
19.5109,4182485
19.5157,3713403
19.5204,3520648
19.5252,3322458
19.53,3315991
19.5347,3333131
19.5395,3320178
19.5443,3198995
19.549,3282778
19.5538,3248573
19.5585,3093509
19.5633,3250184
19.568,3253059
19.5728,3168235
19.5776,3130209
19.5823,3139368
19.5871,3169048
19.5919,3203977
19.5966,3161919
19.6014,3194604
19.6062,3132397
19.6109,3201482
19.6157,3164836
19.6204,3162108
19.6252,3134987
19.63,3116116
19.6347,3039048
19.6395,3112370
19.6443,3134328
19.649,3120451
19.6538,3130004
19.6585,3109556
19.6633,3119300
19.6681,3111173
19.6728,3073812
19.6776,3143881
19.6824,3084719
19.6871,3088908
19.6919,3199658
19.6966,3117145
19.7014,3131399
19.7062,3083683
19.7109,3075176
19.7157,3122961
19.7204,3192574
19.7252,3189179
19.73,3168396
19.7347,3089476
19.7395,3110374
19.7443,3159914
19.749,3122271
19.7538,3150720
19.7585,3071326
19.7633,3179208
19.7681,3098577
19.7728,3099062
19.7776,3058773
19.7824,3075482
19.7871,3036994
19.7919,3125505
19.7966,3116695
19.8014,3048258
19.8062,3069736
19.8109,3058991
19.8157,3073784
19.8204,3059430
19.8252,3086290
19.83,3048963
19.8347,3175022
19.8395,3065192
19.8443,3140313
19.849,3115641
19.8538,3064493
19.8585,3099163
19.8633,3119416
19.8681,3126266
19.8728,3113338
19.8776,3102942
19.8824,3092228
19.8871,3073648
19.8919,3098321
19.8966,3078703
19.9014,3068399
19.9062,3038781
19.9109,3135627
19.9157,3120895
19.9204,3147397
19.9252,3180609
19.93,3136773
19.9347,3065862
19.9395,3027902
19.9443,3121841
19.949,3071075
19.9538,3069289
19.9585,3011850
19.9633,3029447
19.9681,3044788
19.9728,3082578
19.9776,3208026
19.9824,3186770
19.9871,3243292
19.9919,3293054
19.9966,3382427
20.0014,3505172
20.0062,3661475
20.0109,3821155
20.0157,3782228
20.0205,3811372
20.0252,3744982
20.03,3545517
20.0347,3367660
20.0395,3305685
20.0443,3181297
20.049,3155817
20.0538,3110530
20.0585,3212598
20.0633,3120457
20.0681,3122757
20.0728,3136232
20.0776,3053983
20.0824,3137374
20.0871,3140760
20.0919,3085509
20.0966,3147895
20.1014,3087704
20.1062,3086575
20.1109,3111315
20.1157,3096814
20.1205,3043889
20.1252,3117141
20.13,3093692
20.1347,3055726
20.1395,2964355
20.1443,3165217
20.149,3085986
20.1538,3082743
20.1585,3054697
20.1633,3073947
20.1681,3017101
20.1728,3081066
20.1776,2987748
20.1824,3153721
20.1871,3207272
20.1919,3136356
20.1966,3135290
20.2014,3209412
20.2062,3231930
20.2109,3217878
20.2157,3134825
20.2205,3159663
20.2252,3163186
20.23,3100371
20.2347,3076142
20.2395,3093076
20.2443,3099932
20.249,3143085
20.2538,3015238
20.2585,3081046
20.2633,3105564
20.2681,3142347
20.2728,3081165
20.2776,3037828
20.2824,3164791
20.2871,3098601
20.2919,3086697
20.2966,3141005
20.3014,3098238
20.3062,3181402
20.3109,3148294
20.3157,3069682
20.3205,3129063
20.3252,3093433
20.33,3107331
20.3347,3099031
20.3395,3142056
20.3443,3053892
20.349,3085828
20.3538,3020955
20.3586,3157055
20.3633,3093312
20.3681,3043961
20.3728,3104135
20.3776,3057493
20.3824,3049066
20.3871,3049653
20.3919,3035170
20.3966,3065544
20.4014,3114284
20.4062,3053743
20.4109,2992806
20.4157,3026557
20.4205,3151930
20.4252,3021628
20.43,3072336
20.4347,3015540
20.4395,3030062
20.4443,3038355
20.449,3097593
20.4538,3096754
20.4586,3060961
20.4633,3145573
20.4681,3073636
20.4728,3023579
20.4776,3019433
20.4824,2981125
20.4871,3059799
20.4919,3108985
20.4966,3060670
20.5014,3069778
20.5062,3125784
20.5109,3019051
20.5157,3020152
20.5205,3069950
20.5252,3075185
20.53,3080611
20.5347,3100616
20.5395,3064819
20.5443,3106582
20.549,3051816
20.5538,3060357
20.5586,3025837
20.5633,3001630
20.5681,3039806
20.5728,3042929
20.5776,2995851
20.5824,3014093
20.5871,3054125
20.5919,2985235
20.5966,3061796
20.6014,3070854
20.6062,3087966
20.6109,3073719
20.6157,3027203
20.6205,3003160
20.6252,3061249
20.63,3067737
20.6347,3128069
20.6395,2925905
20.6443,2962398
20.649,2969522
20.6538,3063234
20.6586,3043689
20.6633,3028461
20.6681,3107828
20.6728,3075164
20.6776,3034067
20.6824,3022953
20.6871,3039980
20.6919,3086009
20.6967,3102417
20.7014,3095235
20.7062,3133046
20.7109,3138736
20.7157,3186154
20.7205,3143900
20.7252,3111584
20.73,3120673
20.7347,3065513
20.7395,3034301
20.7443,3010860
20.749,3091402
20.7538,3106036
20.7586,3037601
20.7633,3047649
20.7681,2949656
20.7728,3023082
20.7776,3092861
20.7824,3060568
20.7871,2972186
20.7919,3059491
20.7967,2960146
20.8014,3055089
20.8062,3003813
20.8109,3046617
20.8157,3067025
20.8205,3100839
20.8252,3083104
20.83,2997133
20.8347,3008427
20.8395,3100594
20.8443,3027331
20.849,2975861
20.8538,2999220
20.8586,2994477
20.8633,3117658
20.8681,3012908
20.8728,3074211
20.8776,2931712
20.8824,3050268
20.8871,3040884
20.8919,3022844
20.8967,2997948
20.9014,3050014
20.9062,3068043
20.9109,3000887
20.9157,3006608
20.9205,3022776
20.9252,3031643
20.93,3026978
20.9347,3041471
20.9395,3048737
20.9443,3065625
20.949,2957659
20.9538,3027316
20.9586,3092792
20.9633,3024770
20.9681,3008315
20.9728,3033971
20.9776,3013736
20.9824,3045891
20.9871,3054913
20.9919,3064269
20.9967,3000311
21.0014,3038809
21.0062,3082701
21.0109,2969428
21.0157,3053082
21.0205,3065800
21.0252,3141036
21.03,3091068
21.0348,3105382
21.0395,3182992
21.0443,3190302
21.049,3077789
21.0538,3169775
21.0586,3153324
21.0633,3135310
21.0681,3177313
21.0728,3072586
21.0776,3052225
21.0824,3050964
21.0871,3058067
21.0919,3030364
21.0967,3029071
21.1014,3037814
21.1062,2922594
21.1109,3017632
21.1157,2967159
21.1205,3092359
21.1252,2993478
21.13,3055222
21.1348,3006873
21.1395,3059303
21.1443,3077744
21.149,2988136
21.1538,3044475
21.1586,3062701
21.1633,3019425
21.1681,3071427
21.1728,3206828
21.1776,3115849
21.1824,2996897
21.1871,2936387
21.1919,2980550
21.1967,3027481
21.2014,3072447
21.2062,3044040
21.2109,3125546
21.2157,3188362
21.2205,3070270
21.2252,3066518
21.23,3063034
21.2348,3048368
21.2395,2997404
21.2443,3020114
21.249,3013441
21.2538,3076433
21.2586,2937080
21.2633,3007312
21.2681,2924230
21.2728,2984155
21.2776,2963803
21.2824,3014528
21.2871,2980279
21.2919,2940227
21.2967,3020585
21.3014,3056587
21.3062,3032035
21.3109,3021392
21.3157,2992879
21.3205,3004296
21.3252,2971189
21.33,2957666
21.3348,2997849
21.3395,2955921
21.3443,3029574
21.349,3025967
21.3538,3060235
21.3586,2973884
21.3633,3068423
21.3681,3072685
21.3728,3005259
21.3776,3049226
21.3824,2996054
21.3871,3022916
21.3919,3021541
21.3967,2976162
21.4014,2931111
21.4062,3082563
21.4109,3032540
21.4157,3041045
21.4205,3069237
21.4252,3012414
21.43,3017737
21.4348,2991181
21.4395,3069569
21.4443,3008953
21.449,3004158
21.4538,2982232
21.4586,2986779
21.4633,3042172
21.4681,3056964
21.4729,3051991
21.4776,3034524
21.4824,2998110
21.4871,3041080
21.4919,3016604
21.4967,3032958
